0.31
-33.15
-3.59
-6.05
43.14
74.33
75.18
109.89
123
130.37
116.8
144.49
159.27
140.17
153.69
179.6
163.1
259.19
222.78
217.67
264.69
287.46
272.55
315.36
335.83
329.01
338.8
317.36
397.69
353.9
358.68
405.11
385.83
395.2
448.33
374.47
461.39
446.61
406.37
414.56
479.62
499.86
463.55
493.91
1980.51
497.86
513.63
532.13
485
451.58
471.93
472.39
542.71
523.43
455.16
509.76
485.46
540.12
479.59
521.78
522.04
473.09
442.15
467.78
475.8
498.22
468.78
410.9
481.47
441.56
486.45
479.67
410.1
405.57
400.95
430.85
424.68
406.38
333.28
389.75
334.65
346.97
364.14
283.54
317.52
270.38
320.19
222.64
206.94
221.82
210.31
262.88
240.58
209.84
136.65
113.16
120.87
130.36
108.51
114.21
62.66
116.29
9.36
26.18
24.83
48.61
-13.15
-39.67
-41.23
-83.52
-90.47
-93.56
-90.66
-155.38
-89.95
-136.33
-157.6
-141.04
-140.82
-203.26
-213.27
-259.77
-270.93
-251.78
-302.39
-299.31
-260.74
-287.61
-301.6
-339.19
-283.61
-358.18
-349.02
-345.09
-357.21
-355.72
-360.35
-393.48
-427.89
-437.71
-478.42
-410.09
-459.73
-423.12
-468.89
-423.97
-436.5
-461.11
-451.09
-450.55
-469.07
-477.58
-516.17
-464.53
-491.25
-468.73
-483.25
-489.28
-469.16
-521.65
-489.56
-522.65
-449.89
-470.2
-464.4
-445.97
-471.03
-473.73
-478.21
-467.63
-484.76
-453.04
-482.95
-434.73
-452.16
-480.46
-386.47
-411.49
-416.64
-390.92
-347.22
-368.08
-420.54
-325.11
-388.13
-339.12
-352.17
-293.99
-270.09
-325.61
-236.65
-308.94
-299.59
-275.5
-232.76
-214.47
-161.48
-234.48
-192.81
-202.51
-143.15
-155.19
-144.48
-75.29
-88.56
-104.98
-100.86
-89.92
-29.72
1.24
1450.36
44.43
13.8
67.29
34.49
88.38
55.48
150.11
165.83
86.15
190.13
192.9
224.62
210.31
174.58
233.88
207.37
280.73
285.42
267.25
331.59
329.47
334.09
288.19
290.39
384.75
316.48
334.19
379.36
361.8
415.58
404.18
386.21
380.79
468.18
449.03
447.25
418.67
428.65
475.72
469.28
428.66
476.31
513.73
481.38
445.19
471.02
470.03
540.35
521.83
485.63
496.85
506.3
544.19
538.73
496.17
545.91
451.34
491.24
443.1
495.13
515.37
438.6
468.44
436.45
443.59
418.55
480.69
474.52
436.15
419.55
378.24
445.98
401.12
374.1
361.56
392.34
320.97
362.78
374.75
302.41
313.16
349.31
343.24
313.13
242.6
268.4
211.59
261.83
243.56
256.99
180.65
206.12
126.07
126.51
118.37
157.28
93.78
142.13
55.35
62.75
9.51
14.85
21.1
22.84
14.36
-56.13
-47.52
-12.17
-62.44
-64.05
-139.31
-160.54
-111.66
-128.82
-192.23
-138.58
-156.89
-251.63
-171.15
-205.07
-286.23
-276.35
-318.63
-267.81
-266.08
-270.39
-351.97
-327.61
-385.05
-389.14
-403.06
-350.53
-390.72
-412.78
-442.55
-374.83
-388.07
-428.37
-423.47
-402.36
-485.52
-455.23
-434.65
-497.99
-502.57
-499.31
-454.96
-498.77
-509.26
-540.54
-447.6
-542.87
-449.02
-496.67
-515.95
-473.01
-526.72
-468.29
-503.45
-450.29
-475.3
-511.15
-528.58
-461.27
-467.47
-453.3
1010.46
-443.85
-428.63
-485.26
-442.31
-454.97
-389.69
-448.1
-376.09
-446.96
-409.24
-396.06
-382.67
-349.49
-397.78
-343.33
-328.28
-287.86
-281.11
-285.78
-320.92
-243.2
-324.62
-227.35
-283.87
-224.49
-272.2
-242.88
-181.22
-143.97
-151.57
-123.45
-169.15
-132.67
-122.54
-103.01
-66.19
-39.21
-64.96
-7.08
-56.16
8.06
-17.98
-1.72
6.27
94.34
109.79
80.08
118.68
91.23
96.47
123.43
114.38
160.9
222.21
153.37
213.13
207.73
270.34
271.41
301.36
243.57
324.41
328.62
364.28
296.89
364.46
322.98
332.31
355.79
347.66
377.12
363.11
374.3
393.1
376.92
477.21
486.12
431.76
407.04
455.05
487.89
480.36
472.73
526.93
461.44
439.88
515.91
472.67
485.77
484.46
481.46
462.38
451.39
468.72
540.7
464.49
533.49
461.95
475.56
474
499.07
507.96
467.13
494.12
422.15
452.09
427.52
455.39
399.9
403.43
425.07
420.21
441.81
390.26
378.2
392.82
425.99
405.04
314.54
313.22
320.14
321.66
358.05
272.63
333.75
279.5
312.69
225.22
204.69
179.29
187.99
201.78
143.67
168
195.28
191.23
175.85
157.74
76.26
84.4
114.58
24.47
-4
11.76
-24.56
-52.24
-69.54
-14.88
-89.83
-24.23
-108.56
-83.25
-153.01
-91.97
-138.72
-189.48
-218.74
-202.94
-226.37
-182.38
-189.08
-194.16
-276.77
-283.65
-269.48
-326.98
1153.62
-358.32
-354.7
-360.12
-355.97
-330.55
-380.21
-379.36
-430.23
-366.1
-411.26
-434.74
-426.58
-452.73
-464.96
-438.06
-483.47
-486.07
-470.55
-471.31
-510.78
-458.76
-449.48
-484.36
-510.62
-520.55
-515.07
-454.91
-484.29
-498.84
-498.09
-463.29
-537.76
-540.56
-521.29
-479.49
-507.29
-537.63
-463.45
-454.35
-436.72
-486.29
-467.76
-429.33
-497.8
-409.14
-404.29
-394.44
-451.57
-456.6
-429.88
-366.46
-375.43
-390.56
-379.28
-344.11
-394.24
-309.41
-332.95
-343.83
-332.79
-284.48
-319.34
-309.1
-243.85
-286.57
-240.84
-215.93
-237.78
-205.06
-189.34
-176.98
-118.06
-113.2
-101.11
-150.75
-112.88
-100.05
-26.44
-47.92
-59.08
-20.03
-44.85
-39.47
23.48
72.13
70.64
16.25
42.75
59.56
152.91
126.35
113.8
140.52
175.6
195.13
212.76
181.87
192.17
239.79
292.23
286.99
278.63
314.42
327.03
265.91
366.12
304.49
333.62
356.93
337.88
366.47
388.68
365.39
363.06
429.07
472.11
423.65
467.95
468.07
460.95
415.12
418.59
448.65
443.27
461.9
471.43
534.1
440.72
463.55
514.77
527.93
492.89
466.6
469.25
501.28
487.13
500.47
471.78
469.23
527.11
535.43
514.87
497.67
500.4
432.8
455.24
481.47
483.03
425.47
414.87
440.89
462.81
455.65
437.37
436.08
390.46
388.19
421.67
363.08
325.99
303.35
290.6
279.6
325.06
256.13
1820.23
294.44
252.62
270.88
224.72
234.29
197.29
230.03
204.25
161.61
147.44
137.61
121.33
123.18
123.21
61.59
65.47
30.55
54.83
48.09
50.22
-12.81
-11.65
-26.09
-7.9
-28.05
-53.06
-45.4
-92.14
-126.14
-182.15
-171.13
-140.64
-159.05
-193.69
-196.74
-211.28
-255.38
-252.52
-298.65
-279.12
-251.33
-315.16
-271.44
-295.85
-308.18
-301.67
-403.5
-393.66
-364.13
-335.72
-425.86
-417.96
-393.91
-371.85
-396.64
-484.72
-398.51
-493.74
-489.42
-493.11
-450.28
-428.39
-527.11
-472.43
-442.35
-473.42
-527.46
-453.98
-522.18
-490.68
-541.81
-484.37
-531.75
-484.07
-484.16
-520.31
-448.37
-480.35
-478.77
-495.29
-493.41
-481.07
-438.09
-476.62
-453.62
-509.56
-422.08
-442.44
-419.49
-464.38
-444.06
-460.5
-434.87
-427.31
-401.87
-412.46
-336.1
-383.32
-330.4
-327.7
-285.24
-270.33
-296.41
-343.72
-267.65
-223.52
-272.98
-280.85
-270.07
-233.81
-236.54
-163.54
-159.39
-140.39
-166.51
-159.51
-96.35
-106.26
-48.56
-86.22
-65.55
-94.02
-64.03
-17.2
34.35
-3.81
12.09
9.11
21.72
67.25
102.71
111.12
168.28
103.16
197.41
114.8
193.82
232.9
218.69
203.72
222.96
243.31
268.31
227.8
314.08
252.43
269.43
271.71
318.56
379.33
331.54
375.71
327.26
368.52
357.02
353.88
428.64
376.8
398.07
423.84
484.3
497.69
454.76
486.73
436.04
510.35
1942.26
476.45
482.29
496.06
452.37
514.76
517.82
476.72
455.81
498.79
530.38
483.25
462.38
449.4
486.7
494.38
496.54
468.01
461.63
450.21
516.02
424.9
462.59
465.57
499.41
435.78
420.32
470.54
420.53
437.99
443.04
415.87
434.89
372.16
355.64
393.29
376.15
385.63
301.67
282.12
306.86
290.34
249.42
310.75
274.51
213.06
184.75
265.77
183.38
151.7
173.76
117.29
186.54
116.25
125.08
115.1
44.37
114.36
58.95
22.19
82.23
66.48
3.82
30.73
-37.62
-44.03
-85.91
-80.17
-110.12
-103.98
-120.12
-102.92
-121.75
-190.14
-149
-206.48
-251.9
-216.59
-204.29
-274.21
-236.47
-251.8
-317.04
-309.88
-304.6
-307.15
-349.07
-356.29
-305.92
-326.42
-392.06
-359.76
-348.08
-394.38
-360.11
-379
-411.75
-389.9
-457.52
-454
-435.48
-467.22
-425.55
-484.41
-468.1
-492.12
-443.4
-520.31
-536.23
-498.13
-469.69
-501.47
-511.49
-463.27
-483.5
-529.45
-510.42
-460.12
-529.11
-515.54
-528.84
-486.27
-443.47
-444.34
-496.69
-513.54
-499.25
-475.87
-453.36
-459.74
-409.15
-458.47
-384.86
-440.06
-428.76
-365.15
-373.56
-433.99
-332.41
-345.4
-325.88
-366.35
-349.16
-299.09
-319.72
-335.49
-333.17
-293.7
-274.29
-230.83
-206.23
-220.78
-160.24
-223.36
-221.96
-152.78
-176.52
-133.09
-144.83
-71.89
-66.47
-50.22
-15.46
-25.77
-65.44
-27.19
-21.03
1472.14
41.98
47.33
85.76
100.97
57.13
143.2
163.58
114.96
144.29
121
160.07
191.46
171.36
193.18
267.61
205.94
258.3
257.6
256.44
322.47
306.8
339.08
322.88
357.84
374.36
348.82
403.72
382.75
414.33
390.18
407.89
408.75
457.96
414.89
489.8
475.81
486.82
498.83
437.72
496.64
433.42
481.98
452.74
511.83
495.7
460.97
467.81
491.96
523.11
469.83
509.81
494.54
460.36
530.55
449.76
532.15
487.75
480.94
447.81
438.1
443.65
448.83
461.78
434.27
503.81
414.44
469.41
461.32
480.1
450.15
429.21
363.68
445.71
419.22
348.68
353.87
372.03
364.03
298.5
304.48
295.07
312.06
294.99
316.4
310.06
251.07
225.17
251.29
254.8
194.31
218.69
134.6
166.45
109.04
100.49
150.75
134.04
48.27
110.64
63.84
-8.06
-1.22
-37.21
-28.04
-32.12
-82.76
-92.04
-35.19
-44.87
-124.86
-62.29
-116.44
-159.96
-138.78
-196.65
-215
-177.82
-259.04
-176.97
-196.13
-255.05
-269.11
-322.23
-268.06
-277.85
-292.61
-374.43
-299.76
-383.29
-330.48
-400.87
-404.92
-437.67
-394.23
-376.38
-416.23
-465.23
-423.35
-446.85
-490.82
-468.89
-440.98
-487.85
-440.41
-474.21
-463.45
-450.13
-525.85
-454.46
-489.86
-455.23
-524.5
-479.79
-453.66
-542.78
-484.1
-496.49
-519.89
-451.37
-523.83
-518.26
-444.84
-521.25
-475.77
-488.8
1067.47
-430.77
-494.51
-445.27
-418.59
-432.04
-417.79
-438.68
-396.02
-441.47
-362.96
-368.9
-408.26
-415.62
-364.14
-371.96
-304.72
-342.69
-328.8
-318.96
-264.63
-325.63
-253.98
-259.91
-267.41
-202.96
-260.24
-215.61
-182.85
-144.06
-161.48
-165.83
-118.5
-149.73
-144.62
-137.39
-79.46
-42.68
-67.84
0.25
11.3
-18.23
13.98
-4.93
61.47
33.94
19.7
91.4
91.79
154.6
172.35
156.52
131.96
158.67
204.59
244.75
162.47
193.82
220.5
243.49
214.79
291.74
279.28
313.3
328.56
354.57
318.71
394.66
327.44
357.56
346.02
342.17
403.09
438.88
425.22
424.73
402.53
413.5
422.12
461.57
411.55
469.14
446.95
492.14
429.41
479.29
487.34
524.32
523.09
466.63
537.33
483.29
527.89
501.61
492.11
469.27
512.07
499.08
474.49
528.68
443.78
523.07
533.6
460.74
489.33
437.3
426.75
420.58
496.5
473.22
400.17
431.47
424.77
382.49
390.91
391.55
356.11
352.31
406.59
336.91
374.11
338.31
284.77
280.07
289.88
338.51
233.26
282.09
267.4
244.72
234.61
191.95
226.88
217.61
217.34
149.26
112.28
149.5
107.05
56.37
85.67
50.41
13.67
34.1
-2.67
58.4
-31.34
-34.4
-75.64
-84.43
-56.8
-55.86
-65.89
-76.26
-114.65
-98.63
-198.88
-142.38
-162.19
-194.12
-238.68
-179.88
-257.19
-219.85
-230.48
-270.08
-282.31
1214.52
-292.37
-334.71
-334.27
-329.92
-312.76
-388.15
-425.09
-372.1
-352.37
-386.43
-373.4
-453.54
-386.1
-429.64
-455.4
-478.97
-494.28
-483.97
-430.68
-437.88
-516.63
-447.52
-484.93
-499.85
-478.66
-450.24
-469.57
-541.61
-452.63
-505.14
-525.66
-464.35
-467.45
-496.77
-546.19
-529.62
-499.6
-454.49
-521.13
-510.26
-517.09
-510.43
-481.59
-452.95
-419.78
-426.79
-490.31
-393.89
-382.71
-427.92
-455.67
-359.2
-411.44
-401.27
-377.3
-377.22
-373.07
-341.74
-359.26
-280.27
-291.65
-293.76
-235.38
-241.97
-209.51
-270.68
-219.84
-248.51
-198.09
-222.56
-221.06
-129.57
-188.53
-163.26
-155.36
-110.14
-40.67
-85.05
-56
-43.26
-10.52
-5.99
-28.61
-13.7
23.48
18.1
39.64
52.83
96.38
137.41
112.81
178.22
170.18
159.24
136.68
155.01
158.22
180.82
214.97
239.68
234
309.82
320.06
313.95
284.13
369.56
349.44
330.19
337.83
345.4
355.77
390.25
389.79
445.99
388.43
371.68
402.72
462.48
472.76
496.42
448.94
461.42
474.13
440.4
469.36
445.26
473.92
495.05
503.51
460.04
483.69
456.6
509.47
475.85
504.44
457.56
474.82
533.3
518.98
459.42
450.23
476.06
444.63
446.82
498.7
450.11
455.28
428.89
503.27
404.27
473.15
414.31
393.3
384.6
401.65
441.75
353.09
354.94
420.02
331.81
386.2
392.36
318.81
287.05
286.42
257.76
1767.98
294.18
232.42
230.81
244.26
216.1
234.76
153.24
147.83
164.09
172.89
127.96
151.34
123.38
83.61
88.52
18.92
53.93
38.56
37.28
-17.7
-6.88
6.94
-43.5
-75.24
-97.52
-44.99
-91.04
-79.21
-109.14
-161.93
-210.1
-153
-152.37
-242.07
-225.27
-241.83
-261.55
-272.67
-261.21
-323.62
-300.67
-291.69
-301.57
-290.78
-365.98
-355.83
-311.95
-400.19
-370.06
-419.82
-377.5
-451.28
-465.63
-398.73
-466.6
-486.36
-408.02
-457.46
-433.71
-492.46
-483.34
-460.84
-509.71
-481.61
-491.29
-445.4
-460.73
-450.04
-501.36
-544.81
-483.22
-470.29
-486.71
-464.16
-471.75
-463.06
-544.31
-454.62
-509.05
-477.68
-474.77
-479.05
-434.76
-465.76
-457.48
-462.13
-452.98
-471.63
-430.21
-442.74
-458.14
-417.81
-421.15
-394.61
-436.14
-422.69
-328.53
-393.26
-301.82
-356.13
-276.46
-331.44
-321.54
-311.03
-232.09
-306.44
-270.89
-221.57
-219.19
-217.67
-211.7
-156.4
-135.46
-132.59
-174.94
-93.05
-69.11
-90.31
-33.24
-20.21
-44.21
-27.29
-38.93
34
24.4
-7.56
16.82
9.75
72.52
67.75
133.82
162.55
158.18
160
171.47
149.03
158.68
171.25
240.02
192.46
224.09
209.83
225.17
245.2
249.9
287.32
349.85
284.82
308.59
382.65
353.69
403.16
392.05
392.01
428.87
371.44
427.16
430.5
406.93
461.6
484.03
485.59
478.79
498.44
442.14
1934.3
483.32
450.26
479.72
467.87
477.64
454.21
462.57
518.47
512.6
478.74
544.66
479.61
522.36
472.69
447.04
516.94
505.16
447.6
490.44
441.16
450
420.7
440.41
478.01
465.83
434.2
433.95
438.22
440.49
456.89
414.14
391.08
353.51
406.87
366.22
396.75
334.1
301.03
351.51
274.19
288.54
267.52
314.09
278.92
214.92
256.55
228.56
196.55
208.5
174.24
137.06
128.18
114.99
94.6
154.03
122.85
42.24
39.95
70.52
32.62
42.07
-32.31
-1.62
14.18
-84.69
-53.74
-54.66
-115.44
-68.69
-131.69
-92.52
-171.79
-161.87
-151.45
-205.42
-235.47
-193.92
-241.64
-276.11
-220.57
-221.79
-270.89
-243.06
-324.33
-304.1
-318.21
-371.69
-392.34
-317.26
-393.07
-390.04
-408.1
-388.16
-419.67
-439.35
-438.41
-439.35
-418.65
-472.28
-490.25
-432.6
-453.73
-468.88
-485.36
-500.59
-474.1
-479.62
-492.99
-490.19
-459.99
-479.43
-511.43
-526.68
-517.29
-508.39
-482.91
-452.51
-454.31
-527.58
-469.47
-508.75
-457.74
-490.91
-501.53
-501.49
-467.67
-452.52
-450.08
-479.78
-463.93
-420.32
-401.2
-377.64
-430.21
-406.5
-396.16
-411.27
-367.51
-320.99
-334.25
-304.93
-380.99
-368.58
-299.83
-269.07
-252.51
-263.7
-264.64
-257.54
-255.76
-271.72
-259.33
-160.14
-195.77
-159.18
-156.04
-143
-176.58
-66.11
-72.32
-121.84
-40.1
-102.87
-3.96
-28.87
-38.92
1532.97
13.78
37.58
36.37
29.72
123.16
54.88
130.18
151.52
156.55
147.11
162.19
177.78
242.73
252.61
223.73
279.27
214.01
230.91
258.9
278.84
265.13
300.12
308.27
327.01
340.08
367.19
355.32
367.52
392.28
441.87
433.98
377.26
412.74
468.89
406.99
431.68
429.93
436.77
435.33
487.61
469.02
432.76
433.41
440.58
522.48
461.76
493.83
485.42
527.98
477.38
516.06
521.93
525.96
512.87
480.06
483.89
490.27
535.35
506.7
449.11
452.62
477.11
487.25
507.28
458.19
445.31
458.23
441.7
440.66
413.13
452.29
380.86
389.87
382.36
398.72
354.39
333.72
387.93
317.98
370.38
275.55
317.64
269.27
278.09
250.95
254.3
227.14
251.56
212.94
160.49
154.29
163.75
143.79
123.76
140.21
88.78
116.58
73.22
103.87
8.4
60.5
25.03
50.01
-38.5
28.68
-34.73
1.01
-88.02
-122.4
-58.49
-133.77
-164.02
-177.72
-127.05
-198.43
-217.3
-146.97
-191
-184.66
-280.02
-248.94
-232.45
-310.92
-310.33
-329.72
-292.94
-360.21
-379.34
-374.37
-390.94
-396.95
-399.23
-355.23
-356.78
-430.41
-449.47
-459.97
-445.84
-413.47
-441.57
-449.1
-504.99
-491.31
-453.47
-426
-511.24
-443.23
-498.01
-471.13
-503.9
-480.49
-461.77
-454.13
-464.57
-471.76
-525.19
-536.54
-532.9
-476.16
-478.17
-504.35
-511.94
-530.51
-483.62
-470.95
-480.28
1045.84
-489.35
-449.61
-427.47
-489.93
-427.24
-410.28
-385.06
-465.51
-420.15
-398.38
-349.9
-372.25
-395.65
-352.34
-401.16
-302.01
-281.92
-308.14
-260.27
-316.38
-290.08
-228.47
-299.51
-257.26
-233.03
-241.66
-247.87
-148.87
-195
-130.49
-170.19
-119.43
-128.34
-115.91
-132.04
-55.52
-53.9
-57.27
-70.73
-5.48
6.21
-5.92
7.58
73.63
65.69
85.24
84.88
95.06
80.48
175.71
143.54
151.51
213.11
189.62
223.03
201.9
243.62
241.94
276.72
247.02
296.49
318.08
316.7
311.18
302.79
344.4
307.28
380.76
366.65
339.93
412.26
385.65
392.98
384.27
390.21
463.72
441.99
407.56
498.73
469.74
453.13
506.45
449.79
515.49
525.71
480.29
493.5
487.68
492.34
456.32
495.63
524.41
492.37
472.05
467.33
536.25
456.11
500.29
526.57
508.53
469.67
468.04
454.21
510.26
473.46
504.58
486.17
424.62
490.66
465.6
390
379.27
454.42
441.23
414.13
412.08
399.6
398.33
319.4
302.68
309.23
364.64
282.7
329.49
311.28
290.98
260.84
198.48
218.96
249.88
171.5
237.46
224.43
194.37
109.91
99.27
79.21
65.07
43.65
55.81
108.3
39.31
60.76
-29.04
25.03
-58.67
-32.62
-67.39
-103.27
-76.83
-62.77
-139.09
-112.88
-151.37
-141.7
-177.42
-203.22
-182.49
-224.98
-200.74
-278.33
-262.97
-288.63
-231.08
-329.84
1189.95
-261.77
-365.7
-317.97
-354.22
-332.04
-377.71
-378.05
-362.9
-434.39
-397.71
-388.37
-413.53
-379.82
-428.15
-423.21
-405.96
-497.82
-466.17
-425.73
-487.54
-479.77
-437.81
-473.45
-525.86
-505.79
-448.54
-455.76
-498.32
-494.68
-487.53
-467.73
-536
-452.74
-497.13
-518.59
-473.68
-506.7
-502.69
-503.01
-490.41
-468.43
-483.61
-465.62
-434.68
-465.28
-431.94
-484.32
-479.14
-452.91
-381.87
-441.44
-418.18
-349.03
-351.25
-409.02
-319.88
-383.08
-385.23
-289.66
-313.49
-328.21
-339.18
-284.17
-291.6
-304.42
-231.66
-233.61
-233.11
-177.96
-147.22
-151.59
-131.3
-126.04
-103.59
-75.01
-77.72
-56.93
-116.85
-101.25
-10.21
-56.06
10.81
-3.49
31.42
0.61
7.66
9.38
32.32
79.94
121.37
134.37
140.71
116.03
154.33
219.96
184.32
218.38
207.01
248.57
226.12
246.62
262.31
237.33
273.49
306.58
354.09
281.59
344.98
351.17
319.45
323.05
390.44
435.05
442.09
425.84
434.66
447.13
395.3
462.43
459.36
490.5
449.34
472.39
465.44
465.93
439.11
444.42
523.53
472.07
489.88
522.79
496.44
522.05
468.85
536.01
458.49
455.65
479.5
525
464.61
498.93
441.74
461.11
476.96
458.44
511.46
509.27
478.98
460.86
496.06
493.65
401.86
396.62
449.46
430.91
448.54
384.74
396.87
331.03
331.66
399.37
322.62
290.88
336.44
339.14
298.75
1824.21
322.93
238.69
240.54
272.26
263.08
185
181.75
177.65
150.64
109.98
184.76
175.48
146.55
95.27
116.33
36.65
83.97
48.39
-10
-12.46
-20.97
-38.81
-23.44
-96.5
-70.92
-42.47
-69.86
-157.82
-100.28
-97.27
-169.5
-192.2
-189.78
-174.41
-205.05
-243.76
-190.49
-274.58
-237.72
-259.33
-302.7
-286.6
-299.28
-330.88
-294.74
-378.89
-400.26
-320.69
-333.59
-403.71
-364.65
-456.41
-401.48
-457.02
-442.05
-456.56
-490.87
-485.32
-439.63
-475.62
-492.78
-520.64
-455.59
-527.23
-470.95
-495.85
-473.25
-498.75
-448.98
-453.92
-499.05
-466.22
-520.14
-507.83
-505.66
-490.88
-527.56
-523.06
-469.58
-514.23
-473.2
-491.39
-435.43
-471.78
-435.49
-495.63
-445.19
-440.28
-445.46
-463.56
-411.72
-420.09
-434.72
-424.79
-416.47
-401.23
-349.16
-372.14
-352.64
-303.48
-335.01
-332.6
-258.22
-288.73
-255.07
-241.97
-223.11
-237.94
-226.56
-253.23
-237.72
-147.84
-184.53
-167.12
-134.93
-130.66
-134.55
-83.91
-37.08
-40.42
-28.66
-42.17
19.39
-39.52
-38.62
-16.43
-13.3
59.31
108.06
94.86
68.68
96.28
128.03
92.84
198.35
127.31
132.31
222.95
183.72
230.8
284.43
228.02
294.77
300.28
275.72
315.19
289.88
360.29
305.72
334.96
348.08
353.75
359.26
381.88
416.48
374.4
425.59
390.62
400.61
484.85
428.95
430.93
431.53
476.77
425.49
486.15
1935.36
445.76
528.14
452.44
487.02
519.07
523.24
450.57
466.41
526.29
461.68
497.83
527.44
509.14
482.89
490.48
449
472.64
446.35
507.06
471.36
502.34
474.21
422.46
443.66
420.7
410.15
391.77
413.67
412.63
397.62
387.09
351.94
357.67
362.63
386.6
392.32
297.91
367.33
349.75
291.96
309.56
233.77
226.55
218.19
249.24
225.99
264.8
209.26
156.67
168.31
189.65
121.65
86.33
134.24
116.04
61.56
97.6
67.23
72
51.2
5.08
26.55
25.63
-32.96
-94.4
-49.49
-111.28
-84.29
-75.66
-78.21
-156.05
-161.23
-179.9
-165.47
-212.85
-207.6
-180.66
-220.99
-278.98
-310.01
-269.76
-319.91
-250.83
-264.7
-282.31
-290.4
-347.71
-379.52
-409.87
-409.48
-421.72
-432.31
-426.98
-420.8
-452.24
-393.57
-448.17
-492.08
-498.54
-442.01
-491.97
-447.92
-476.63
-523.33
-516.18
-457.27
-476.96
-510.37
-461.82
-459.78
-508.3
-507.69
-503.89
-479.6
-470.76
-488.54
-468.18
-533.2
-470.92
-512
-461.66
-526.85
-485.95
-511.65
-435.99
-499.19
-473.78
-436.14
-432.03
-446.17
-398.5
-476.01
-427.22
-414.9
-432.97
-374.63
-340.06
-386.66
-396.46
-330.21
-335.33
-335.53
-275.81
-307.72
-326.11
-251.19
-263.81
-233.04
-211.13
-219.28
-172.46
-208.07
-145.61
-149.51
-138.98
-118.37
-173.8
-83.03
-64.67
-95.97
-67.88
-94.56
-77.74
-70.08
14.1
-42.22
55.39
48.91
40.17
21.38
123.78
130.2
98.45
119.21
170.57
128.95
116.06
192.11
198.66
165.25
256.44
205.3
287.08
236.61
305.54
241.18
282.81
316.88
357.72
306.47
356.75
365.8
368.93
402.82
373.17
366.18
404.68
417.53
417.78
410.11
391.71
442.54
465.35
429.43
433.01
440.05
425.06
485.84
499.08
459.57
484.75
471.94
517.03
542.78
476.69
514.64
467.08
475.62
458.93
488.58
502.08
452.56
484.26
492.65
468.58
477.64
448
510.06
474.1
458.69
462.75
484.6
476.76
397.15
411.85
464.9
415.47
461.76
422.53
436.64
400.96
394.6
359.38
343.65
363.77
289.27
300.28
307.06
270.73
293.53
315.12
276.81
197.97
201.64
215.86
235.52
149.37
175.13
202.52
131.47
184.22
72.17
118.73
126.2
30.71
12.84
46.91
49.55
37.72
-6.06
34.73
-23.37
4.04
-98.17
-47.36
-102.26
-128.19
-90.86
-118.8
-156.26
-176.48
-217.34
-226.65
-244.88
-183.71
-209.28
-221.79
-230.68
-243.51
-269.85
-291.04
-319.86
-329.95
-366.73
-299.05
-321.9
-352.02
-347.86
-366.76
-397.85
-444.49
-404.41
-403.67
-389.86
-464.96
-406.46
-441.09
-461.38
-509.12
-483.17
-443.48
-503.33
-485.49
-467.27
-537.36
-534.63
-499.22
-508.95
-511
-475.25
-459.62
-462.5
-480.37
-514.4
-477.97
-496.67
-522.83
-445
-505.9
-522.46
-477.32
-497.59
1075.26
-518.06
-488.76
-455.83
-411.95
-487.35
-404.33
-470.05
-418.25
-433.74
-421.43
-355.56
-339.67
-401.2
-388.76
-327.78
-365.87
-319.55
-341.55
-314.11
-347.28
-266.3
-242.93
-226.58
-290.48
-256.57
-196.92
-163.46
-177.01
-174.43
-160.87
-110.28
-124.44
-90.51
-91.7
-99.76
-129.63
-103.49
-2.42
8.77
-25.95
-12.36
-13.5
-4.93
3.4
25.34
45.8
118.25
128.19
161.47
134.76
188.49
183.68
175.1
177.06
193.39
245.56
237.36
286.84
303.68
230.69
258.54
283.67
330.4
310.68
307.79
328.17
371.41
328.07
384.21
359.55
363.28
386.43
427.28
385.25
438.65
442.6
472.95
441.88
419.5
480.48
422.32
505.12
473.22
463.06
469.95
509.14
472.18
468.65
453.22
477.97
495.41
466.75
455.52
494.09
538.82
527.5
451.61
490.76
492.9
511.59
450.61
466.35
484.5
505.91
497.65
479.52
422.37
495.17
448.03
392.67
448.2
472.37
365.35
397.51
382.03
394.45
344.43
362.74
352.47
375.04
356.4
362.84
324.94
347.64
239.99
318.47
309.89
296.95
285.58
179.91
209
223.33
183.47
161.92
177.78
152.64
171.13
84.16
127.56
124.82
52.48
55.27
24.43
24.62
45.55
18.49
24.79
-52.38
-42.43
-91.75
-38.22
-94.6
-141.11
-104.28
-170.04
-159.28
-135.58
-193.61
-206.81
-195.19
-196.39
-203.65
-247.95
-274.88
-282.63
-334.01
1214.72
-309.09
-350.38
-316.86
-345.36
-360.48
-393.72
-363.18
-342.29
-354.38
-388.16
-389.03
-426.29
-403.26
-398.37
-439.76
-424.1
-492.34
-461.67
-496.04
-443.16
-483.56
-501.13
-533.45
-496.67
-500.26
-519.24
-463.57
-452.95
-512.39
-520.97
-485.88
-514.17
-448.93
-476.16
-476.15
-518.14
-519.64
-517.16
-502.85
-528.71
-495.42
-444.01
-472.64
-420.66
-467.92
-461.66
-471.86
-421.04
-406.05
-395.31
-391.79
-354.97
-395.87
-410.8
-362.12
-360.63
-354.11
-339.36
-319.16
-360.98
-263.11
-257.76
-320.4
-274.42
-234.05
-271.97
-205.08
-199.61
-167.75
-148.87
-217.84
-204.38
-103.84
-81.99
-97.86
-104.88
-110.84
-112.55
-36.79
-50.81
-24.77
-52.03
-37.79
41.67
76.07
23.1
102.04
106.07
46.2
112.74
127.69
166.4
148.12
146.27
151.65
236.49
243.59
246.32
196.62
269.74
233.62
258.57
320.73
267.26
292.54
297.77
378.21
346.21
394.86
406.11
372.62
425.03
387.64
370.26
387.22
469.82
388.61
387.61
412.1
485.11
478.9
431.57
504.23
479.23
463.02
474.92
445.97
453.87
522.25
536.13
491.73
544.04
496.21
468.41
540.7
494.92
545.73
511.34
499.68
466.1
510.82
465.2
454.03
527.89
464.6
462.5
505.26
467.54
480.7
472.22
395.4
482.91
406.88
389.4
403.12
445.79
386.16
341.41
405.34
369.22
385.24
353.03
339.22
285.59
354.34
267.02
233.17
282.33
234.99
234.77
266.1
258.4
214.64
182.74
215.95
184.56
123.12
147.4
152.64
74.63
94.18
46.64
25.04
-5.39
-6.79
18.17
-50.88
-46.59
-34.83
-49.25
-46.33
-104.24
-127.42
-59.47
-82.78
-147.86
-128.04
-125.43
-211.25
-229.22
-254.35
-224.47
-228.24
-295.43
-274.46
-315.11
-312.06
-304.23
-357.38
-361.75
-323.06
-307.3
-374.04
-339.66
-379.77
-383.96
-392
-402.21
-404.68
-394.73
-471.39
-483.45
-405.29
-445.97
-449.71
-475.66
-516.2
-521.43
-498.17
-457.72
-498.68
-461.67
-518.85
-519.42
-490.83
-522.43
-523.06
-467.69
-538
-514.09
-477.08
-494.53
-478.1
-513.3
-459.33
-447.89
-458.5
-485.9
-445.31
-452.69
-492.9
-452.1
-504.8
-423.17
-416.4
-450.6
-393.8
-401.42
-401.4
-374.09
-385.34
-412.01
-378.56
-379.56
-389.29
-314.9
-283.02
-273.78
-310.56
-262.91
-242.71
-313.13
-220.14
-252.4
-232.98
-221.92
-188.83
-182.34
-168.03
-185.55
-192.53
-118.76
-117.99
-125.74
-105.32
-52.57
-92.32
-75.1
-10.94
5.5
17.47
-18.1
24.59
20.77
48.64
92.05
137.95
135.52
89.51
98.45
105.79
193.41
137.61
210.74
252.23
175.52
224.99
206.2
291.13
270.88
262.35
325.28
330.31
355.9
337.2
348.59
383.05
353.75
410.18
335.65
349.22
446.99
452.79
416.96
416.95
399.3
457.37
403.44
485.07
435.45
465.46
449.56
1927.43
460.25
463.88
536.32
511.99
513.32
498.68
535.6
484.81
485.32
522.08
483.71
472.74
517.62
473.07
464.33
498.1
490.31
529.6
441.8
440.44
457.81
471.97
419.69
480.03
414.56
441.33
485.55
408.55
418.83
399.36
450.62
389.01
372.96
424.13
399.8
322.45
313.07
370.25
356.35
325.68
261
242.99
263.85
283.34
270.63
269.67
248.77
255.26
197.04
191.16
200.42
185.5
169.65
95.36
138.8
91.87
77.29
69.1
34.55
74.26
43.05
-7.05
-26.37
12.37
-81.15
-98.89
-90.56
-92.92
-132.24
-78.44
-142.98
-163.15
-177.9
-222.3
-187.19
-211.87
-210.08
-255.13
-210.86
-226.99
-313.74
-315.7
-257.52
-350.91
-330.11
-357.47
-335.73
-370.38
-393.18
-394.28
-359.26
-377.98
-401.29
-427.21
-404.02
-445.06
-409.3
-439.73
-442.9
-407.56
-485.14
-419.01
-421.52
-475.81
-464.61
-462.29
-480.68
-489.35
-454.43
-526.59
-489.32
-507.14
-511.1
-538.38
-465.93
-513.9
-462.34
-474.78
-474.86
-490.34
-526.63
-458.96
-513.28
-482.77
-506.25
-433.31
-431.01
-438.06
-411.75
-438.5
-470.11
-394.25
-454.85
-417.73
-366.23
-418.3
-350.64
-422.94
-347.02
-353.9
-333.97
-287.63
-363.44
-303.89
-249.99
-279.61
-270.6
-249.79
-297.26
-217.16
-199.32
-256.95
-243.86
-166.78
-167.15
-180.76
-146.61
-78.49
-149.53
-119.65
-85.48
-98.85
-97.54
12.84
24.18
-19.93
1491.43
39.19
-5.34
64.89
68
116.32
61.99
106.26
79.56
101.53
149.32
148.92
143.35
160.98
255.55
255.83
193.89
208.7
313.18
281.63
313.74
309.51
284.81
341.88
375.64
321.62
405.58
378.03
335.25
410.32
394.73
436.7
454.33
425.07
451.91
471.94
470.75
465.86
498.68
442.8
453.11
516.88
468.03
501.06
470.1
460.96
518.12
467.06
457.53
531.32
531.85
537.15
489.31
532.26
503.27
459.92
542.06
450.67
459.95
503.31
437.65
452.25
497.78
466.98
447.9
418.17
464.31
456.84
485.06
412.87
432.3
409.55
394.72
443.64
339.47
377.92
355.55
399.7
370.34
353.75
306.1
283.67
308.47
300.26
264.53
218.29
239.66
284.97
208.9
215.51
214.24
199.79
193.27
133.77
108.42
152.73
139.36
55.14
126.19
50.01
22.91
38.83
28.41
-38.3
-26.69
-48.8
-66.32
-45.64
-59.93
-118.97
-79.34
-145.28
-140.21
-168.7
-178
-123.01
-231.65
-154.86
-260.15
-179.08
-224.69
-264.35
-245.47
-234.49
-298.96
-339.31
-346.68
-342.63
-307.49
-374.66
-391
-324.99
-417.83
-361.73
-380.13
-358.28
-371.41
-403.42
-455.84
-435.13
-420.17
-416.66
-465.59
-421.51
-427.49
-482.12
-449.61
-508.08
-456.59
-534.49
-523.64
-473.73
-494.61
-490.03
-459.52
-547.25
-470.12
-517.58
-470.27
-539.94
-452.86
-490.51
-503.01
-504.08
-483.64
-501.27
-479.21
-454.16
-427.67
-466.81
-491.22
-473.75
-458.5
-459.74
-464.77
-408.89
-401.92
-405.58
-427
-377.72
-340.12
-399.26
-389.59
-354.77
-330.01
-306.2
-337.08
-257.99
-273.72
-284.26
-303.51
-286.24
-202.74
-220.76
-206.31
-228.38
-206.76
-120.96
-181.25
-128.88
-83.43
-111.37
-41.37
-92.17
-37.87
-7.61
18.45
19.47
-5.59
58.6
70.93
85.9
69.57
114.73
45.77
155.75
131.71
177.91
187
166.74
135.54
196.61
213.51
272.14
244.93
226.47
295.17
279.87
325.77
274.21
358.01
331.86
285.52
296.15
363
401.58
414.76
384.79
369.06
450.01
375.75
465.73
408.1
410.96
405.8
406.16
426.8
464.79
511.64
514.5
442.39
448.97
444.02
479.91
482.37
502.36
501.77
457.9
546.71
523.15
483.21
520.64
464.21
537.84
450.3
520.44
452
440.01
480.87
484.16
450.44
500.08
441.23
504.85
479.33
430.21
395.02
446.5
388.7
386.38
368.54
359.95
383.49
414.56
394
325.1
391.1
344.13
363.02
348.9
260.6
307.59
248.61
311.03
229.79
212.51
269.31
189.3
215.38
229.62
181.88
185.75
120.04
175.61
78.09
136.51
81.65
48.92
14.01
57.87
42.55
18.55
1.23
-47.57
14.32
-57.14
-52.4
-28.06
-129.31
-68.69
-82.14
-139.14
-177.32
-184.27
-205.14
-189.7
-234.6
-244.53
-256.39
-271.27
-213.94
-318.25
-305.35
1197.53
-320.95
-344.5
-330.45
-369.65
-367.7
-377.01
-327.25
-384.22
-439.17
-380.68
-425.68
-413.4
-450.22
-475.46
-406.8
-457.21
-438.64
-490.59
-438.13
-473.47
-438.46
-475.01
-517.24
-532.4
-480.15
-494.1
-512.71
-520.79
-489.36
-463.13
-481.33
-452.6
-482.02
-466.11
-538.11
-517.11
-492.17
-476.86
-500.85
-510.64
-461.79
-521.91
-442.14
-455.72
-494.75
-427.28
-449.23
-460.76
-447.91
-448.72
-390.62
-428.05
-410.56
-430.01
-329.77
-396.54
-309.93
-376.73
-333.12
-361.04
-299.27
-325.43
-318.95
-285.55
-211.09
-235.5
-277.79
-175.18
-212.41
-166.37
-197.26
-175.3
-117.3
-102.93
-117.96
-61.5
-106.39
-98.14
-81.67
-68.29
-64.54
-23.5
-33.28
61.73
14.57
-4.57
109.38
91.7
93.7
126.73
111.19
114.54
100.66
174.61
193.44
238.24
186.55
174.24
232.04
287.16
245.68
317.36
295.03
248.71
353.09
281.13
353.57
372.94
330.85
352.88
392.57
405.1
439.14
425.9
382.4
436.06
386.37
400.68
468.23
405.02
475.15
504.63
470.81
438.35
505.92
483.5
443.93
468.63
533.77
542.46
469.01
542.23
515.27
469.81
506.74
538.75
548.5
483.71
460.78
476.96
521.15
466.67
512.92
501
434.29
423.92
426.8
495.86
452.2
478.77
409.59
445.5
466.77
439.99
451.37
406.26
411.65
350.48
328.64
371.34
315.9
348.07
335.8
365.96
301.39
298.1
1751.06
265.74
277.56
205.8
202.36
181.27
192.67
226.46
209.42
165.76
176.09
184.53
155.6
64.04
114.43
92.57
47.28
10.37
36.46
-19.99
37.32
15.34
-37.11
-12.8
-28.29
-41.08
-116.35
-136.66
-91.16
-152.69
-194.37
-199.39
-131.31
-150.97
-224.83
-197.72
-238.65
-282.49
-281.32
-269.46
-291.82
-258.64
-279.71
-284.25
-335.17
-347.12
-344.08
-342.37
-399.05
-336.52
-388.03
-356.53
-386.42
-443.97
-413.87
-404.7
-477.82
-444.05
-442.72
-464.63
-450.02
-498.87
-431.69
-441.45
-483.38
-442.4
-506.31
-538.78
-521.57
-483.59
-522.21
-458.6
-500.36
-495.68
-504.15
-539.43
-473.19
-457.76
-471.33
-474.31
-497.23
-528.01
-485.01
-484.56
-498.5
-460.68
-476.13
-416.6
-397.38
-463.65
-402.98
-398.4
-415.11
-444.04
-353.92
-384.79
-392.02
-360.29
-404.21
-390.24
-348.02
-289.01
-312.6
-254.47
-284.04
-313.45
-248.55
-206.95
-244.71
-175.1
-257.06
-173.66
-193.14
-128.4
-174.1
-182.78
-82.27
-119.53
-97.01
-52.26
-78.17
-52.64
-27.8
8.39
-45.64
49.28
63.94
4.03
81.1
67.58
83.92
74.4
114.38
135.62
170.96
109.5
147.89
158.48
172.41
229.56
182.64
259.82
297.95
316.27
265.34
249.54
312.63
282.88
371.71
342.98
347.38
343.01
362.05
386.4
356.42
381.81
456.71
405.8
426.81
467.4
399.11
489.96
494.74
498.91
416.13
509.93
447.44
448.82
512.29
514.57
476.01
448.79
544.2
498.5
466.82
489.32
461.8
540.4
450.94
522.55
514.72
539.43
496.75
512.23
516.36
501.7
447.16
509.04
518.94
434.23
506.33
463.07
448.95
422.31
480.21
466.78
447.87
434.85
406.83
422.14
334.33
342.39
398.44
325.49
288.85
367.19
322.43
300.2
266.1
294.75
245.75
293.1
236.15
236.37
193.32
172.36
219.4
173.5
159.58
183.54
116.63
110.98
95.01
110.73
95.5
52.97
-5.05
70.53
51.03
-31.75
0.59
-47.98
-73
-45.26
-87.44
-60.62
-160.11
-86.3
-154.99
-152.03
-179.13
-150.36
-148.6
-174.78
-267.27
-242.52
-206.72
-313.81
-277.9
-330.51
-296.21
-281.12
-372.21
-352.38
-335.91
-400.85
-385.65
-397.98
-368.28
-360.86
-443.88
-408.77
-388.15
-400.08
-482.82
-488.61
-440.68
-415.33
-489.11
-459.44
-436.97
-466.34
-490.41
-536.25
-466.41
-540.23
-536.59
-511.29
-545.28
-520.81
-452.47
-532.45
-490.52
-477.13
-475.81
-452.5
-518.72
-470.29
-454.41
-461.09
-517.04
-483.82
-458.64
-506.02
-476.29
-438.12
-468.88
-465.79
-426.56
-407.58
-383.41
-417.73
-384.95
-363.2
-409.18
-324.48
-319.04
-373.03
-383.08
-361.69
-308.97
-279.42
-290.35
-304.81
-303
-274.06
-256.33
-209.44
-247.59
-216.06
-229.59
-194.84
-190.96
-134.3
-90.6
-163.48
-76.16
-88.27
-94.25
-66.69
-63.58
-13.85
19.84
1499.72
45.43
61.9
31.85
20.47
74.67
95.24
158.56
130.73
93.66
169.36
141.89
138.07
175.75
227.38
248.06
281.46
246.57
233.88
239.35
333.96
274.68
311.31
340.58
368.84
351.18
406.03
355.77
408.02
367.37
426.52
384.63
399.62
448.8
414.13
418.52
408.81
426.4
430.41
497.47
460.75
498.12
440.28
509.25
486.89
523.6
521.5
528.08
513.33
521.49
500.47
487.3
515.65
511.42
517.09
541.32
469.25
540.57
526.57
463.93
518.27
499.43
483.21
515.99
448.48
427.5
449.37
456.88
483.45
421.7
466.85
414.47
439.89
440.39
402.32
421.14
414.01
339.45
331.5
300.33
306.35
300.06
315.53
304.14
292.32
262.83
299.21
257.71
274.93
205.38
236.6
208.15
176
142.89
174.53
150.47
76.97
83.13
122.36
55.06
10.48
80.11
14.23
61.11
10.32
-24.22
-25.2
1.38
-33.3
-62.57
-115.07
-115.8
-91.41
-137.41
-122.23
-205.24
-186.07
-178.69
-220.82
-217.52
-220.15
-210.96
-248.7
-304.72
-298.55
-319.42
-280.73
-338.98
-382.08
-371.31
-403.33
-335.2
-368.57
-433.39
-373.77
-444.21
-418.03
-389.64
-426.1
-447.19
-462.66
-407.88
-465.55
-443.91
-444.75
-475.34
-527.7
-498.95
-451.39
-508.43
-478.62
-488
-459.39
-525.42
-493.75
-466.45
-472.75
-517.6
-449.08
-451.69
-517.37
-487.09
-520.48
-505.41
-518.83
-527.1
-506.75
1034.1
-448.06
-481.98
-422.98
-451.85
-453.55
-466.33
-414.28
-450.31
-427.76
-413.06
-389.75
-431.43
-368.73
-379.96
-338.4
-350.53
-374.79
-328.39
-288.17
-320.75
-258.14
-264.31
-244.52
-267.94
-185.03
-265.3
-213.24
-146.68
-128.9
-169.04
-103.31
-138.9
-96.6
-149.19
-59.88
-73.53
-62.33
-52.88
-39.6
4.61
27.42
34.03
-4.49
92.47
88.52
94.49
64.07
55.4
132.72
178.69
102.82
128.01
180.71
206.57
180.92
259.44
212.06
219.7
288.87
272.85
260.44
294.37
351.04
285.45
334.87
385.2
379.36
373.34
404.57
341.41
410.73
379.38
406.34
372.16
432.09
468.42
399.89
494.55
417.78
421.99
467.14
520.28
498.33
527.35
510.36
477.76
452.39
482.4
534.58
492.76
478.53
479.44
515.06
490.56
501.08
539.52
510.6
487.32
446.61
506.76
438.48
509.41
496.99
447.22
439.36
468.73
444.48
448.02
451.31
423.94
444.41
423.21
455.23
370.98
368.49
390.83
373.92
372.23
337.42
306.04
343.47
326.6
310.75
335.38
301.31
263.44
294.94
239.86
245.26
199.4
195.49
235.74
215.15
207.38
160.93
121.34
111.29
110.46
62.44
98.18
86.84
95.61
25.45
38.91
51.75
-12.76
1.29
-13.21
-41.84
-95
-131.68
-141.3
-69.17
-95.41
-137.33
-172.2
-126.25
-186.29
-177.57
-252.02
-260.91
-268.75
-295.41
-250.84
-255.78
-338.27
-292.24
-313.11
-367.51
-377.43
-352.37
-349.52
-331.6
-354.97
-370.09
-426.49
-415.34
-453.85
-472.99
-407.89
-402.44
-478.95
-489.34
-444.53
-497.21
-444.7
-472.59
-504.47
-481.76
-505.19
-447.23
-494.46
-522.76
-525.68
-448.99
-459.99
-491.18
-493.54
-537.59
-538.26
-531.17
-449.62
-534.86
-496.99
-523.23
-499.79
-446.21
-520.84
-478.2
-461.33
-494.94
-454.54
-407.61
-472.34
-461.02
-442.73
-424.45
-389.15
-435.46
-357.62
-408.17
-352.47
-378.35
-384.75
-289.7
-319.43
-300.79
-308.75
-328.66
-316.07
-284.02
-236.03
-209.45
-199.63
-165.88
-181.08
-165.12
-205.66
-161.99
-183.64
-157.7
-138.92
-78.3
-62.9
-63.88
-85.53
-11.12
-6.49
-10.49
54.02
51.77
45.13
54.51
26.24
42.46
56.89
126.1
89.37
107.97
125.07
209.48
181.75
178.9
198.35
213.62
271.08
263.12
316.47
261.03
273.32
313.14
279.72
337.94
377.54
318.4
405.1
332.57
367.35
429.41
435.43
417.75
403.89
428.62
450.46
477.44
495.79
495.45
509.1
466.34
489.64
523.9
521.7
502.11
462.64
504.82
445.62
502.37
489.14
489.01
535.06
478.77
536.06
527.38
533.4
497.7
526.84
477.51
446.31
459.32
477.76
490.87
462.03
446.73
431.78
426.11
438.89
494.73
468.07
444.02
404.1
397.11
451.07
437.12
425.52
356.34
375.45
391.64
391.63
381.41
350.75
341.23
308.78
1798.52
294.68
285.35
243.46
242.72
232.22
210.56
160.76
207.21
212.19
176.13
121.53
113.16
96.99
65.69
58.07
48.68
58.52
-6.22
11.76
-40.91
-25.05
-6.05
-39.81
-67.63
-109.3
-126.51
-67.55
-123.91
-87.74
-143.1
-200.22
-128.03
-172.41
-188.99
-178.29
-251.03
-208.31
-213.82
-233.43
-276.28
-292.64
-327.91
-299.59
-297.21
-351.43
-361.75
-318.49
-366.13
-343.19
-404.5
-430.38
-435
-457.69
-449.49
-416.44
-449.76
-481.48
-485.03
-434.26
-482.72
-518.92
-439.96
-515.31
-486.52
-480.79
-440.5
-523.1
-519.38
-535.82
-475.99
-490.87
-479.45
-469.82
-466.91
-466.87
-469.04
-510.2
-503.37
-498.72
-522.88
-444
-476.16
-480
-468.86
-497.47
-505.8
-490.3
-434.73
-477.15
-481.95
-399.6
-453.2
-390.47
-409.51
-363.59
-347.79
-407.31
-399.4
-310.41
-331.09
-306.22
-294.14
-311.06
-271.07
-300.55
-294.84
-213.15
-253.58
-182.84
-234.55
-204.08
-218.72
-191.81
-199.86
-127.23
-117.74
-92.06
-93.19
-94
-40.36
-103.19
-21.02
-32.1
-24.28
32.74
-0.19
80.24
65.15
28.79
97.52
60.57
112.06
95.7
124.13
118.71
193.74
199.02
221.65
234.4
173.91
207.51
264.06
291.06
312.11
281.77
321.93
290.22
283.43
292.86
337.82
379.34
387.16
393.88
393.89
375.18
406.55
455.15
467.8
459.88
463.79
468.25
414.75
420.64
464.16
485.26
443.4
2019.55
479.96
503.77
460.93
466.6
472.7
477.15
534.35
463.73
511.52
534.28
509.77
533.87
536.42
491.48
448.74
469.85
523.09
502.26
487.24
439.37
474.65
485.08
456.54
455.35
454.21
453.97
477.61
432.17
445.77
370.69
357.49
368.56
386.13
379.49
384.99
357.16
348.77
376.64
363.71
311.45
266.95
321.92
240.66
302.35
240.67
205.21
177.99
232.7
202.02
148.11
186.89
181.23
151.14
108.05
71.61
37.78
80.35
94.2
36.72
40.32
-36.57
7.48
2.95
-32.21
-3.9
-64.2
-117.29
-78.17
-125.1
-77.96
-158.78
-158.88
-125.84
-136.58
-192.42
-175.58
-268.03
-249.02
-255.83
-278.33
-253.79
-257.22
-285.26
-342.7
-342.93
-378.09
-314.54
-382.41
-414.58
-335.02
-387.25
-411.8
-368.17
-454.25
-381.43
-388.38
-400.39
-471.78
-491.14
-504.84
-426.85
-496.51
-463.72
-436.23
-525.45
-528.01
-464.98
-448.07
-464.48
-511.58
-496.87
-495.84
-518.29
-462.72
-511.48
-529.99
-525.56
-498.92
-489.53
-444.85
-519.88
-437.77
-527.23
-441.77
-484.93
-507.14
-492.5
-450.14
-473.83
-485.94
-421.93
-455.5
-457.44
-421.55
-380.03
-419.76
-416.16
-403.72
-369.62
-364.72
-369.77
-356.02
-270.32
-351.77
-311.85
-239.58
-235.05
-262.75
-260.13
-256.34
-244.88
-242.84
-149.05
-216.27
-141.67
-127.39
-175.7
-165.21
-109.29
-83.57
-48
-80.02
-79.35
-47.63
-18.49
0.32
-28.67
4.45
81.88
26.79
37.85
60.16
93.91
115.31
149.18
175.94
126.83
154.49
176.24
158.6
245.81
191.97
279.86
250.07
223.49
258.74
290.35
314.71
322.6
327.26
360.08
344.23
375.58
333.67
382.66
414.92
444.57
433.12
416.38
386.92
472.36
459.21
496.18
489.15
492.3
451.25
440.72
471.6
438.88
481.69
528.89
531.38
473.33
503.79
521.69
532.42
542.32
481.01
511.71
487.13
516.92
531.25
506.12
479.8
449.51
507.29
513.56
469.58
504.41
503.52
421.07
418
495.87
466.16
399.48
379.39
384.17
393.67
429.4
386.96
432.66
383.42
387.45
327.34
308.38
292.23
276.3
306.1
335.1
295.03
296.77
279.87
209.19
211.09
201.38
171.07
149.05
186.87
170.49
196.87
171.99
133.85
107.26
120.96
119.36
68.45
69.02
61.06
-21.02
-38.54
-32.6
-5.45
-81.28
-21.59
-113.5
-81.84
-93.17
-67.54
-99.74
-189.33
-137.31
-152.38
-183.13
-195.04
-203.63
-204.05
-260.79
-267.87
-219.56
-331.2
-294.1
-276.69
-336.92
-329.5
-348.77
-363.32
-403.77
-322.32
-414.06
-350.58
-354.96
-412.75
-414.14
-424.71
-387.7
-444.81
-482.61
-456.38
-508.77
-420.23
-466.03
-510.17
-460.25
-461.77
-465.29
-459.73
-499.53
-456.69
-529.53
-452.06
-483.82
-507.26
-466.24
-462.79
-505.75
-491.78
-465.09
-457.24
-536.47
-511.84
-472.22
-504.96
978.82
-442.66
-465.12
-420.74
-416.9
-473.03
-483.24
-477.45
-414.68
-427.03
-372.94
-358.42
-373.63
-404.31
-380.47
-322.12
-319.02
-350.9
-369.37
-319.26
-261.34
-329.48
-249.31
-236.08
-244.47
-216.97
-229.89
-226.97
-231.51
-207.19
-132.65
-143.66
-141.13
-118
-98.44
-69.32
-47.23
-83.82
-21.38
11.35
-55.13
-45.29
21.83
63.77
30.64
100.95
31.19
49.08
94.08
89.32
134.81
133.8
139.18
156.07
186.51
238.75
204.88
186.2
224
205.95
230.67
302.28
271.75
348.27
361.96
355.61
296.83
338.78
376.73
328.97
330.43
340.13
394.36
368.4
430.74
473.4
473.48
450.79
436.89
436.45
463.97
494.97
455.21
465.52
487.96
471.8
494.27
490.23
499.19
542.29
533.09
449.74
546.47
499.82
501.45
466.48
505.43
544.51
493.59
542.51
456.4
481.33
520.78
524.24
482.86
441.14
448.33
496.86
443.41
464.22
403.02
466.16
440.54
404.24
363.96
440.04
423.56
336.73
410.2
346.51
335.41
295.41
371.36
297.75
320.6
264.42
239.26
294.9
290.22
261.87
223.55
222.81
206.34
218.73
181.48
112.93
128.24
129.65
148.4
61.08
64.08
52.22
65.34
29.17
-16.35
53.18
27.03
-70.09
-51.18
-42.25
-92.66
-36.78
-138.91
-119.3
-167.18
-181.16
-126.7
-172.4
-202.87
-151.85
-190.63
-226.34
-209.29
-214.64
-253.24
-263.73
-301.22
1177.58
-320.52
-354.61
-339.48
-377.85
-329.26
-370.76
-415.93
-388.6
-408.69
-411.71
-390.91
-442.16
-436.62
-436.87
-396.83
-493.56
-500.31
-423.37
-512.81
-446.14
-511.8
-505.44
-440.95
-479.94
-534.1
-493.47
-448.9
-477.38
-467.6
-454.59
-533.54
-486.35
-474.35
-541.07
-496.65
-534.24
-482.22
-458.25
-526.11
-435.03
-451.69
-471.68
-509.62
-454.97
-451.84
-409.92
-468.65
-420.04
-426.61
-386.76
-366.57
-427.97
-434.78
-415.32
-359.37
-397.11
-346.6
-386.09
-376.42
-313.89
-296.2
-291.49
-259.7
-227.47
-264.62
-205.18
-185.99
-203.6
-198.04
-173.37
-187.21
-180.56
-161.76
-123.87
-88.06
-52.45
-93.38
-20.25
-16.37
-10.23
8.31
12.97
50.11
42.42
19.37
54.31
74.45
96.22
118.01
80.94
151.13
161.13
176.94
169.79
141.85
226.17
173.7
185.3
215
251.82
266.97
229.33
283.6
293.24
354.12
289.49
301.41
370.58
308.63
349.1
344.24
420.81
380.16
422.16
371.47
465.91
411.72
388.02
419.72
444.81
413.83
445.05
448.59
501.09
508.09
482.99
449.89
505.81
531.57
451.81
487.23
471.67
455.06
522.78
503.16
543.65
466.49
468.49
516.33
487.27
453.06
482.87
440.53
468.64
428.76
427.68
470.89
437.62
461.33
473.19
482.42
467.14
379.73
383.43
401.61
354.78
419.2
419.7
375.64
360.19
306.41
327.31
338.04
278.49
256.57
268.67
289.44
257.88
206.22
213.65
258.75
203.76
203.92
192.33
137.13
157.86
144.61
137.16
69.1
69.6
107.57
67.19
83.31
39.97
40.18
20.12
-23.53
3.85
-56.75
-75.93
-72.79
-84.27
-47.26
-137.94
-119.82
-168.27
-138.02
-179.24
-184.64
-194.01
-195.31
-223.94
-235.55
-261.05
-295.28
-250.42
-258
-287.96
-336.43
-317.77
-321.87
-382.52
-338.92
-329.82
-397.27
-410.17
-419.07
-417.63
-421.78
-432.35
-477
-436.5
-417.61
-481.16
-449.81
-478.03
-425.34
-509.78
-508.43
-445.87
-452.67
-440.06
-508.59
-448.18
-489.76
-461.65
-491.11
-468.75
-458.06
-475.18
-503.49
-486.03
-481.09
-526.64
-527.46
-472.09
-516.62
-465.9
-516.28
-429.26
-512.05
-432.41
-436.33
-457.93
-453.77
-391.93
-457.76
-453.75
-386.29
-352.3
-441.13
-407.15
-409.91
-377.57
-333.72
-336.21
-351.36
-358.48
-303.83
-314.72
-286.2
-247.35
-285.22
-291.35
-272.74
-233.98
-229.74
-229.99
-213.67
-205.26
-108.89
-179.3
-163.16
-67.22
-95.69
-36.96
-82.92
-14.55
-76.38
27.58
42.17
-5.36
-11.6
62.65
67.89
50.35
138.59
128.05
142.52
168.07
183.45
132.67
132.29
203.93
250.03
261.75
213.22
209.21
296.01
248.56
248.85
255.31
264.38
366.15
353.9
326.23
317.19
361.02
405.5
379.92
441.33
405.49
459.31
421.8
423.52
441.83
481.14
475.53
499.76
504.98
441.56
466.63
1966.3
482.51
511.09
455.93
478.02
531.72
458.55
504.94
517.59
526.69
454.8
501.6
463.01
498.88
460.68
539.43
442.43
497.44
535.71
509.45
513.18
480.73
478.53
510.45
432.66
461.52
472.23
444.56
382.05
436.21
367.82
434.23
442.36
371.61
419.83
367.51
359.76
362.27
325.78
340.76
284.46
258.99
318.74
292.84
299.61
211.06
248.65
197.12
176.92
233.24
172.75
156.2
198.81
90.42
147.63
141.33
56.99
82.59
65.5
72.4
13.71
12.32
6.1
21.31
13.95
-11.95
-83.1
-103.9
-41.38
-64.81
-151.18
-143.05
-145.48
-119.14
-154.37
-237.16
-234.57
-244.67
-245.16
-265.16
-302.61
-261.85
-235.75
-266.54
-269.21
-290.34
-326.2
-325.99
-371.33
-385.95
-353.2
-428.1
-351.75
-372.38
-379.28
-461.82
-409.71
-395.17
-410.22
-399.15
-462
-502.35
-457.96
-472.55
-524.89
-514.86
-530.64
-470.36
-486.3
-481.34
-465.31
-505.08
-472.87
-492.82
-542.09
-545.75
-535.04
-515.77
-499.67
-458.85
-480.86
-480.26
-481.09
-454.76
-454.49
-427.9
-438.42
-454.34
-458.36
-477.33
-447.25
-412.32
-386.26
-452.83
-423.68
-403.95
-420.23
-410.29
-426.9
-412.2
-388.88
-391.49
-375.9
-361.74
-324.59
-255.07
-315.47
-247.81
-237.9
-264.73
-253.38
-207.48
-239.37
-215.65
-159.23
-168.99
-146.3
-186.56
-136.41
-81.33
-118.19
-97.44
-62.66
-46.52
-14.72
16.12
6.58
1543.05
61
-2.05
17.53
83.4
117.8
100.34
146.63
118.85
141.48
130.05
192.48
234.75
200.52
216.34
191.16
248.51
228.9
238.75
292.21
299.27
291.63
321.75
297.33
379.63
314.49
358.65
340.66
422.14
434.13
405.61
363.42
426.12
384.61
389.28
486.78
426.15
487.65
491.83
460.39
427.33
438.77
490.59
523.32
471.01
457.03
518.79
449.53
479.09
456.37
460.09
519.44
454.64
531.47
515.41
544.37
518.83
537.36
491.32
518.1
467.56
525.85
472.02
481.45
488.67
497.79
448.5
418.63