494.42
507.77
444.09
510.11
479.82
438.13
456.48
499.67
429.42
496.87
411.25
440.56
413.86
434.05
460.58
444.19
383.91
436.6
440.51
372.64
405.32
398.25
388.75
362.73
374.07
348.54
290.68
266.86
1791.49
236.78
271.32
226.88
233.95
219.48
231.85
197.32
214.13
194.15
112.81
89.18
129.44
146.42
57.9
47.66
57.13
33.99
-9.61
48.6
24.31
-58.05
-18.42
-66.83
-88.46
-85.03
-129.15
-70.66
-105.79
-169.25
-129.92
-133.97
-216.43
-175.63
-236.93
-252.78
-236.56
-254.31
-253.12
-266
-286.63
-261.08
-312.5
-273.59
-305.41
-324.82
-395.45
-346.45
-340.17
-393.58
-414.06
-365.11
-452.99
-376.28
-451.95
-455.54
-483.02
-409.24
-483.37
-445.06
-452.01
-480.56
-482.44
-458.26
-488.83
-497.12
-515.33
-509.12
-541.17
-520.22
-499.85
-455.68
-523.22
-513.88
-490.63
-457.49
-537.61
-528.42
-483.45
-455.66
-460.65
-524.46
-459.9
-522.31
-441.91
-464.93
-480.77
-464.98
-395.79
-395.6
-462.94
-471.05
-380.44
-367.49
-433.01
-356.67
-355.42
-381.56
-346.53
-361.16
-346.8
-292.51
-290.79
-254.31
-246.52
-229.6
-279.8
-257.02
-274.04
-251.22
-206.73
-236.38
-134.77
-133.81
-132.96
-125.47
-79.82
-70.82
-84.78
-101.77
-26.55
-82.51
-83.78
0.56
-36.44
-24.77
17.69
53.54
86.75
81.11
117.55
77.93
153.8
148.61
126.83
112.2
203.06
187.1
173.25
212.19
183.72
211.35
229.06
254.86
324.78
298.48
324.97
349.39
296.97
316.37
352.04
326.7
325.69
360.51
402.54
375.5
369.06
446.99
403.34
480.49
482.69
416.25
435.8
427.88
424.44
492.94
458.02
465.58
496.94
518
535.24
522.36
541.67
452.31
476.58
477.68
491.73
513.5
543.72
448.79
473.66
539.48
534.35
498.8
506.41
465.85
506.56
523.49
460.13
476.09
419.45
404.96
416.32
425.51
462.69
383.43
366.53
421.14
384.92
381.14
426.58
416.46
407.25
386.76
369.46
340.7
271.7
254.84
247.96
300.58
225
276.83
260.2
213.74
220.4
234.65
143.16
215.58
187.13
111.42
85.07
75.64
137.6
96.97
104.95
100.36
33.45
36.23
-38.92
-21.84
-32.75
-41.73
-79.31
-61.63
-81.29
-106.69
-156.82
-113.27
-159.24
-110.51
-185.12
-148.52
-196.92
-165.92
-210.37
-260.98
-270.8
-263.01
-323.96
-255.89
-326.09
-326.79
-290.01
-297.95
-381.05
-399.36
-367.51
-405.75
-436.52
-353.96
-364.69
-399.22
-375.05
-477.29
-430.15
-463.6
-493.52
-419.03
-507.29
-430.22
-485.5
-497.63
-497.23
-523.58
-489.32
-521.83
-510.47
-478.15
-531.37
-533.51
-532.27
-517.04
-513.1
-469.59
-512.24
-477.15
-541.97
-502.44
-537.05
-454
-476.66
-479.66
-428.68
-505.41
-457.39
-468.52
-486.92
-393.86
-404.3
-460.03
-382.96
-435.05
-371.93
-371.28
-356.77
-412.96
-349.88
-383.58
-328.74
-335.94
-360
-332.5
-307.54
-285.28
-306.8
-280.89
-277.16
-200.19
-221.59
-158.33
-175.16
-155.5
-172.43
-178.54
-163.23
-143.75
-51.34
-93.63
-55.42
-20.72
-23.28
-10.41
0.73
1520.95
44.85
65.29
30.42
94.86
48.37
65.02
144.86
81.25
182.43
117
165.64
225.06
218.04
160.64
251.42
190.71
226.45
299.79
227.39
299.37
335.09
361.79
351.28
331.41
345.59
370.59
366.06
395.9
404.31
443.77
362.78
414.24
423.49
438.99
427.87
445.74
431.76
425.62
418.68
485.76
518.5
502.04
521.12
456.57
494.89
527.12
467.72
483.75
546.68
482.48
524.65
464.9
509.91
493.86
487.88
486.64
527.53
477.05
505.76
503.04
490.31
485.2
453.71
441.69
507.78
464.57
446.27
451.53
440.4
420.2
419.97
386.71
440.96
345.45
430.6
393.53
340.79
344.9
343.85
344.22
300.84
322.3
283.92
271.79
276.62
220.97
245.44
183.9
235.9
229.66
199.8
165.87
157.44
119.5
102.77
93.6
59.17
120.7
112.45
30.37
55.6
68.29
-3.53
-22.24
26.86
-9.66
-59.32
-70.94
-89.29
-80.78
-115.34
-84
-184.94
-173.39
-148.23
-200.09
-159.34
-170.71
-187.41
-264.58
-204.41
-278.64
-270.57
-299.3
-272.95
-288.76
-366.55
-359.11
-312.95
-315.76
-366.08
-340.51
-410.17
-375.53
-416.73
-405.69
-396.56
-438.97
-442.53
-461.59
-401.59
-428.5
-473.93
-427.55
-445.14
-504.89
-444.04
-490.98
-482.9
-536.12
-534.3
-475.06
-502.43
-499.43
-484.37
-474.18
-522.19
-546.51
-533.33
-450.47
-523.87
-446.55
-477.96
-534.83
-508.18
-444.13
1072.9
-456.14
-477.2
-479.59
-415.16
-447.54
-456.54
-445.88
-420.2
-408.85
-428.44
-371.29
-335.02
-399.28
-334.97
-402.88
-294.62
-328.07
-279.45
-324.1
-251.13
-279.87
-304.16
-238.77
-212.41
-268.2
-210.04
-183.24
-152.79
-214.83
-121.74
-196.15
-116.97
-74.73
-125.12
-57.43
-52.43
-100.89
-52.14
-21.55
4.03
-11.55
-28.91
-12.51
88.53
15.66
124.58
114.7
129.86
108.71
166.47
108.8
211.38
213.5
168.83
225.12
223.12
264.46
237.92
224.47
239.54
291.32
268.49
307.85
278.73
318.29
317.65
337.58
367.61
364.35
335.47
366.45
425.57
449.16
394.41
390.66
452.49
414.17
450.85
435.1
482.37
475.58
494.09
496.66
513.23
452.72
533.06
487.11
454.68
516.3
459.07
477.16
484.24
530.98
548.44
500.88
494.69
497.2
535.53
448.41
538.46
475.37
470.11
439.69
496.86
503.3
439.88
453.42
464.74
400.07
462.85
422.73
393.31
373.95
451.83
416.91
426.48
366.32
393.51
338.75
299.71
346.24
297.17
353.18
347.54
277.17
253.42
267.32
209.58
224.36
264.37
221.57
146.7
135.82
166.09
156.58
133.34
123.71
60.02
88.99
71.81
78.27
65.48
24.05
6.29
9.24
-44.93
-76.46
7.03
-30.34
-66.22
-47.17
-78.05
-121.48
-167.22
-189.72
-148.79
-127.69
-149.15
-160.28
-211.64
-212.7
-271.34
-287.43
-227.89
-241.67
-253.16
-295.56
-273.25
-305.43
-339.05
-389.33
-402.08
-421.04
-402.98
-370.9
-448.99
-401.46
-451.23
-378.12
-467.55
-489.64
-490.44
-486.22
-500.17
-478.49
-424.74
-505.12
-527.07
-449.54
-527.91
-536.85
-524.6
-505.19
-530.31
-525.81
-474.85
-459.17
-500.65
-533.02
-537.18
-485.75
-520.61
-512.47
-495.6
-465.98
-473.87
-455.73
-519.84
-492.9
-453.73
-443.69
-483.26
-494.25
-472.84
-381.27
-394.82
-427.35
-391.51
-402.44
-378.26
-383.12
-356.5
-388.96
-352.49
-313.35
-320.29
-337.17
-316.27
-316.63
-243.57
-255.98
-286.6
-243.05
-201.12
-177.8
-208.64
-229.86
-180.83
-159.79
-145.9
-159.79
-122.9
-106.67
-45.47
-85.8
-45.03
-76.62
-1.66
-52.1
9.5
-24.75
64.14
71.37
117.08
59.17
133.67
135.49
119.47
183.23
150.57
172.26
223.11
219.99
251.09
234.66
256.68
264.25
298.94
298.57
260.42
271.06
360.4
359.96
353.1
331.17
346.3
386.9
401.23
388.04
380.13
383.12
377.79
459.67
451.88
399.53
456.27
463.77
436.75
492.48
441.74
452.91
470.43
448.25
521.05
536.89
489.54
447.97
460.32
498.34
534.66
466.12
472.09
481.21
474.99
511.41
479.65
508.77
512.38
502.81
500.5
472.52
489.57
496.84
452.94
504.81
480.87
449.92
441.17
478.44
438.01
420.37
415.19
369.27
423.89
392.22
413.53
355.31
316.41
385.87
325.01
303.7
252.04
1830.99
294.06
234.47
298.36
264.21
201.35
165.64
186.27
135.07
157.26
177.51
178.02
137.24
99.53
65.02
70.13
43.01
15.19
84.02
-18.66
53.92
-3.89
-18.09
-26.81
-92.82
-76.99
-93.11
-48.13
-113.64
-144.22
-131.71
-150.57
-121.5
-190.38
-179.7
-254.33
-194.05
-217.09
-264.17
-300.96
-286.75
-289
-255.96
-339.06
-306.22
-351.46
-384.49
-359.55
-408.8
-413.1
-387.35
-427.13
-364.95
-404.08
-376.48
-463.35
-444.57
-426.63
-420.2
-440.34
-494
-480.04
-444.06
-484.16
-530.54
-488.79
-529.67
-460.62
-515.5
-536.75
-503.24
-504.16
-517.58
-529.48
-546.15
-530.07
-528.82
-510.49
-473.7
-460.96
-531.83
-486.53
-509.54
-480.67
-455.89
-503.4
-492.26
-462.69
-445.8
-471.28
-469.16
-451.23
-380.64
-382.37
-399.88
-425.18
-427.89
-356.56
-347.47
-397.2
-351.72
-309.09
-352.81
-348.15
-273.1
-250.85
-218.92
-279.19
-269.26
-235.81
-238.58
-191.99
-191.13
-145.31
-160.05
-108.7
-144.2
-109.17
-93.06
-35.33
-89.01
-43.03
-14.85
-2.82
-51.8
-22.05
-0.59
8.49
8.73
93.56
88.83
66.27
107.36
113.37
150.61
199.3
195.67
155.78
167.43
250
175.78
191.85
283.97
272.46
300.15
291.12
320.13
340.86
296.8
360.52
353.79
391.92
379.56
355.01
345.16
411.89
412.59
431.46
399.46
400.74
460.88
431.84
497.26
429.2
483.41
512.62
430.49
1962.72
518.56
535.97
464.67
482.06
503.55
514.85
541.74
484.45
530.56
487.53
507.97
529.69
544.56
458.64
485.42
497.8
469.39
510.87
441.24
442.1
508.37
481.72
430.07
468.17
438.35
457.88
481.12
422.42
419.91
395.53
410.93
353.9
343.11
409.17
379.2
326.34
312.66
330.39
278.52
348.52
279.7
244.41
220.84
227.73
283.19
212.22
239.46
248.77
143.1
191.04
207.81
157.77
128.52
88.44
73.33
100.32
122.28
80.74
63.13
70.52
-26.45
-9.63
24.03
-15.05
-10.89
-27.13
-86.48
-90.77
-129.33
-155.53
-172.24
-181.02
-128.81
-131.2
-223.73
-216.22
-193.3
-230
-220.08
-263.58
-227.99
-249.42
-269.76
-261.33
-295.87
-347.52
-324.98
-370.15
-362.43
-340.77
-342.72
-359.7
-401.2
-416.5
-383.82
-450.93
-434.82
-420.29
-492.52
-447.57
-481
-469.89
-429.36
-445.95
-495.47
-450.71
-510.76
-529.04
-535.4
-484.83
-465.06
-533.52
-499.49
-521.52
-540.88
-494.91
-500.08
-477.06
-485.29
-459.13
-443.54
-484.22
-437.97
-506.28
-450.99
-466.6
-464.21
-489.16
-487.74
-447.05
-469.59
-442.32
-439.66
-365.55
-366.09
-438.8
-422.36
-377.21
-332.67
-379.37
-367.55
-369.44
-287.19
-334.38
-344.17
-290.8
-312.37
-274.49
-286.68
-220.78
-243.57
-235.77
-240
-143.08
-186.76
-146.56
-173.63
-100.34
-90.46
-105.87
-93.77
-35.8
-44.39
-35.23
-6.69
1451.62
3.69
7.37
58.37
52.56
86.04
125
142.28
113.87
104.49
148.5
170.29
216.33
204.13
199.2
196.58
187.28
263.7
220.96
304.67
258.75
257.69
327.93
298.39
281.3
306.85
308.81
332.93
370.73
366.23
370.52
447.39
384.27
402.07
440.95
394.21
444.77
464.65
446.66
452.94
448.59
425.61
469.74
460.04
468.95
534.68
470.42
503.4
531.06
531
482.38
469.74
478.46
547.22
477.37
491.77
507.54
463.76
469.55
506.15
501.62
518.15
461.41
450.38
483.68
460.95
434.09
415.1
404.48
438.85
416.75
393.08
420.48
362.98
402.29
422.91
394.47
371.53
353.07
354.42
379.64
324.89
355.97
261.51
326.91
321.82
251.99
219.26
241.77
229.17
207.91
180.73
214.66
131.04
132.37
145.39
165.61
86.73
80.25
40.75
86.76
85.27
19.08
46.74
-28.94
-40.14
7.25
5.01
-84.58
-33.16
-78.97
-59.32
-77.58
-149.29
-96.77
-112.22
-197.35
-194.39
-212.33
-257.29
-198.75
-258.89
-270.58
-257.66
-266.18
-308.06
-267.56
-350.51
-325.82
-327.78
-388.18
-374.67
-398.81
-338.52
-439.91
-354.59
-391.98
-458.28
-459.19
-465.04
-423.09
-400.13
-434.69
-452.19
-510.91
-483.28
-502.67
-525.16
-457.41
-447.14
-530.08
-455.04
-488.99
-495.11
-465.62
-512.2
-478.91
-495.01
-493.87
-474.66
-455.16
-499.04
-445.06
-442.36
-518.53
-483.87
-509.81
1050.64
-427.31
-468.15
-500.89
-425.16
-469.81
-398.59
-385.7
-376.69
-420.97
-411.72
-440.52
-393.66
-425.19
-343.46
-308.28
-383.21
-319.32
-328.79
-326.16
-255.89
-319.15
-269.3
-307.7
-222
-286.03
-204.47
-189.65
-216.29
-211.78
-186.93
-156.76
-153.22
-131.84
-88.69
-106.37
-129.8
-36.81
-99.75
-85.12
-26.06
-29.94
-24.32
66.67
32.98
88.23
79.31
42.56
107.21
141.24
98.2
126.7
195.4
215.64
138.98
197.79
187.3
248.07
225.79
297.24
262.63
231.7
304.3
255.64
358.76
291.02
324.38
392.57
376.04
348.74
376.22
409.78
428.3
373.53
429.24
430.85
391.63
441.37
441.31
413.29
476.93
421
490.75
523.34
523.12
514.11
532.47
522.17
469.64
528.02
506.79
531.49
528.43
526.06
535.61
471.07
491.19
452.62
522.75
513.89
529.64
437.09
474.19
513.71
476.09
471.17
477.83
475.59
477.35
420.16
488.63
426.13
446
377.23
419.41
396
352.39
331.39
331.51
390.46
333.1
342.26
348.96
285.85
261.97
278.73
302.05
235.45
205.55
248.5
242.14
183.01
195.56
189.76
192.69
159.35
106.49
171.11
98.95
48.56
58.38
108.46
77.04
-9.93
-4.92
-28.15
27.27
-66.49
-13.78
-17.55
-53.71
-43.48
-64.87
-156.47
-97.05
-132.31
-199.8
-215.08
-171.87
-149.62
-162.06
-184.86
-271.24
-282.37
-272.94
-324.13
-242.06
1215.19
-279.11
-315.03
-307.26
-365.53
-401.75
-351.59
-413.31
-397.06
-386.75
-377.51
-418.56
-471.47
-478.22
-455.15
-423.68
-417.73
-474.21
-504.81
-452.89
-455.93
-462.31
-473.11
-497.99
-473.03
-450.86
-458.97
-481.67
-518.29
-501.65
-543.73
-501.34
-453.27
-503.29
-465.65
-449.09
-469.58
-519.14
-493.95
-488.05
-463.74
-511.04
-478.16
-423.93
-452.55
-488.4
-412.06
-481.12
-459.21
-439.66
-439.07
-413.38
-371.06
-368.16
-343.42
-327.92
-381.33
-305.81
-297.87
-307.8
-309.41
-254.68
-318.27
-240.3
-219.67
-296.37
-212
-201.68
-208.39
-200.27
-209.47
-170.5
-170.99
-120.07
-140.36
-109.55
-147.5
-45.59
-25.49
-103
-7.12
-65.36
36.58
47.97
-16.04
41.27
57.97
98.53
119.63
75.45
60.89
164.85
119.01
202.37
166.22
205.88
180.12
198.29
261.87
245.2
293.35
214.59
262.21
317.09
348.06
359.49
285.45
305.34
366.83
316.54
319.29
403.66
377.54
429.01
375.98
383.88
459.42
444.28
387.7
449.77
494.58
415.57
427.51
450.88
474.54
467.58
481.26
472.71
486.26
496.74
521.92
522.9
465.09
505.39
525.88
469.71
472.8
455.84
534.63
532.19
464.3
465.11
500.16
527.47
519.05
507.86
452.55
491.59
494.26
477.03
453.59
436.59
431.01
376.31
455.59
444.08
393.68
416
422.53
358.05
383.37
314.03
346.67
286.98
336.47
273.15
1758.86
327.41
220.19
252.53
274.43
186.4
233.07
175.64
162.26
132.02
203.58
135.77
151.1
152.15
79.86
116.36
59.5
23.3
-6.54
-3.54
55.75
24.52
-22.51
-80.65
-48.93
-105.43
-101.84
-44.89
-117.62
-170.85
-155.98
-153.91
-143.87
-168.5
-196.49
-214.81
-199.51
-260.99
-226.45
-237.22
-246.62
-302.55
-286.65
-315.07
-308.34
-343.64
-305.76
-386.39
-337
-329.57
-378.22
-351.23
-405.62
-367.5
-376.71
-421.94
-468.76
-439.4
-463.39
-497.67
-448.63
-434.43
-437.59
-520.44
-498.38
-484.94
-443.9
-452.64
-492.78
-453.82
-450.19
-521.98
-501.87
-546.08
-504.26
-539.03
-467.54
-490.63
-497.15
-484.13
-529.83
-494.66
-473.47
-513.91
-463.21
-472.34
-485.59
-414.65
-469.12
-479.46
-460.58
-394.8
-417.98
-362.55
-411.93
-385.4
-352.76
-408.84
-395.52
-402.91
-378.04
-381.1
-317.97
-347.27
-265.21
-240.61
-314.96
-282.93
-220.29
-209.41
-257.35
-236.76
-189.67
-188.49
-132.77
-161.61
-97.67
-74.77
-117.46
-85.41
-113.1
-97.04
-70.31
18.51
-51.62
4.1
39.13
-4.05
20.57
65.99
103.86
99.43
86.11
114.68
177.09
188.62
133.28
138.8
183.09
217.85
202.01
242.36
263.96
306.08
222.81
320.87
321.21
345.13
305.58
297.77
355.36
344.34
350.11
358.5
334.16
358.27
406.71
397.72
371.17
435.56
406.78
479.28
483.65
487.62
498
452.26
504.68
1964.6
433.05
450.75
464.9
539.82
464.6
462.47
521.29
479.39
467.38
455.62
541.63
534.79
471.6
490.11
483.38
466.1
445.41
535.81
530
517.45
494.02
494.66
443.45
428.4
466.57
405.33
436.4
389.76
440.76
431.6
369.38
410.84
345.27
353.26
409.74
354.57
314.78
345.68
368.68
277.02
320.79
318.11
313.27
299.37
274.83
213.77
218.21
161.46
147.72
210.32
182.78
195.15
139.84
88.1
92.55
103.61
47.79
19.47
54.95
77.43
-28.68
-19.47
33.6
-33.3
-4.39
-105.23
-120.01
-83.37
-142.77
-98.41
-83.87
-172.24
-173.17
-221.15
-172.37
-174.59
-196.28
-253.66
-240.26
-300.83
-309
-296.97
-280.49
-353.13
-292.57
-284.81
-316.36
-372.75
-386.88
-384.69
-350.01
-425.08
-429.67
-419.66
-463.95
-388.62
-427.06
-408.63
-446.95
-447.53
-500.43
-481.02
-478.12
-456.83
-499.8
-481.01
-450.41
-493.82
-524.15
-489.59
-517.18
-469.82
-527.53
-474.68
-465.83
-523.45
-481.76
-525.14
-445.27
-505.44
-459.26
-487.84
-510.91
-460.86
-494.58
-498.26
-478.55
-501.39
-410.03
-416.09
-423.66
-471.51
-463.9
-364.58
-401.44
-346.58
-375.34
-418.51
-406.84
-343.73
-376.51
-297.87
-345.4
-325.92
-335.34
-274.91
-250.43
-214.01
-292.64
-279.74
-258.29
-168.6
-156.1
-144.19
-206.89
-172.98
-175.41
-132.57
-128.28
-135.49
-106.89
-97.23
-17.33
10.87
-4.23
14.42
1520.28
29.55
26.65
59.35
58.45
55.85
90.42
160.86
168.75
128.06
122.88
202.14
144.65
180.53
257.09
269.06
236.44
292.44
269.87
310.34
315.41
270.03
329.16
304.53
367.74
368.76
364.16
409.57
390.55
419.24
362.9
396.78
461.97
436.3
429.4
449.29
415.81
470.31
420.76
439.61
442.67
523.97
502.16
459.83
454.97
526.67
472.23
479.11
474.88
539.86
451.74
526.99
450.78
520.57
480.28
528.9
497.22
496.24
459.15
470.94
477.65
453.88
446.31
430.97
421.85
479.65
479.67
409.57
433.06
401.78
459.68
452.69
386.31
447.46
378.36
335.78
396.19
390.75
370.94
294.42
334.8
347.65
271.94
243.95
241.55
255.95
212.33
191.26
190.9
218.38
238.58
176.46
197.28
148.96
184.36
126.22
125.09
113.12
54.95
78.21
80.9
70.17
49.16
-3.17
-29.21
-66.84
-77.05
-57.93
-107.47
-92.44
-71.74
-143.66
-132.88
-134.17
-180.2
-211.31
-227.27
-197.8
-178.66
-194.08
-203.26
-289.79
-279.47
-305.73
-311.32
-275.47
-321.29
-299.04
-338.42
-396.76
-406.29
-342.71
-399.9
-381.04
-356.57
-373.94
-414.72
-403.21
-434.99
-454.43
-456.48
-427.33
-490.53
-474.05
-441.96
-438.1
-505.72
-472.41
-526.45
-524.68
-449.66
-507.36
-458.1
-482.23
-452.5
-545.21
-517.57
-490.45
-533.97
-484.08
-447.33
-487.29
-491.72
-475.25
-491.56
-434.46
1032.38
-503.6
-511.7
-448.55
-416.67
-419.76
-442.72
-415.77
-425.66
-444.99
-379.14
-408.39
-361.26
-378.34
-361.71
-382.67
-373.67
-318.13
-346.99
-306.64
-268.65
-314.22
-296.03
-239.59
-221.36
-256.58
-232.93
-239.62
-167.76
-217.59
-167.92
-171.17
-114.15
-145.67
-104.48
-134.93
-66.73
-47.68
-56.03
-30.9
-73.27
-41.7
-24.07
33
-10.91
3.07
35.95
33.66
87.89
75.71
86.96
149.59
186.72
184.38
213.61
204.02
171.11
234.82
210.9
216.62
262.09
299.79
313.93
296.76
300.37
326.93
342.99
331.68
311.12
327.16
332.88
419.34
374.42
385.96
397.79
455.93
474.1
423.75
442.41
432.09
498.97
483.4
465.13
438.08
484.76
434.1
513.74
509.76
542.39
488.85
448.55
489.93
511.1
478.11
456.46
517.2
484.4
500.59
460.91
467.98
481.41
527.79
436.65
529.26
484.86
493.24
470.59
501.62
501.73
407.59
417.96
427.02
415.22
405.45
445.52
359.41
365.88
428.28
360.56
377.49
360.29
379.08
323.98
351.5
263.55
283.12
315.18
231.17
286.51
199.86
250.89
235.28
251.51
201.58
209.16
142.76
137.41
115.6
107.84
151.5
127.99
53.91
43.58
20.36
15.43
-36.45
-31.62
-56.87
-55.78
-69.52
-97.51
-77.17
-67.04
-94.15
-147.73
-105.18
-101.52
-119.39
-162.98
-198.55
-216.71
-239.53
-276.43
-225.59
-264.13
-269.12
-315.48
1203.08
-296.77
-360.85
-355.21
-298.88
-365.47
-349.7
-399.35
-396.88
-345.37
-414.08
-372.83
-371.6
-449.24
-410.5
-466.25
-446.34
-424.39
-502.38
-487.58
-511.29
-461.48
-515.01
-472.92
-518.34
-496.22
-490.42
-464.82
-506.59
-543.38
-519.93
-542.79
-540.24
-450.32
-467.21
-536.54
-495.95
-484.28
-478.6
-448.94
-507.81
-496.97
-516.02
-425.26
-420.11
-446.37
-408.41
-470.83
-433.19
-440.1
-449.89
-447.81
-369.9
-380.14
-370.21
-422.39
-354.72
-328.17
-339.18
-313.21
-311.06
-310.01
-279.27
-241.95
-228.45
-280.97
-274.33
-247.28
-183.98
-192.03
-145.09
-186.95
-210.26
-101.9
-106.62
-169.19
-105.49
-46.53
-95.02
-16.02
-44.78
-34.99
23.05
-14.28
53.7
76.78
20.61
59.96
73.93
63.68
98.13
165.48
123.93
103.48
130.58
140.57
240.83
172.93
244.82
222.62
197.41
280.7
260.36
278.87
273.55
298.17
289.36
335.6
359.6
370.5
388.02
416.17
430.14
418.73
432.69
443.85
427.12
465.72
406.18
399.81
406.19
419.39
459.34
513.12
451.46
441.35
513.7
517.5
471.55
537.45
454.2
532.44
495.78
507.41
512.91
527.46
520.21
488.73
525.85
527.18
500.83
524.78
495.44
488.1
462.4
453.87
502.85
506.46
499.47
475.01
469.29
408.98
462.91
407.46
381.51
437.31
450.78
378.58
349.71
327.89
318.51
393.21
325.04
381.08
299.24
353.93
271.01
1822
266.16
215.16
292.02
272.41
238.61
167.89
159.53
200.78
151.99
165.42
150.32
125.53
147.94
94.72
108.29
54.96
77.47
33.29
-28.84
-42.29
-12.25
-45.95
-13.67
-26.74
-108.85
-54.58
-97.3
-142.36
-120.26
-130.04
-182.65
-202.82
-235.93
-157.55
-260.23
-241.42
-206.7
-271.9
-227.54
-246.85
-246.4
-327.73
-363.1
-322.84
-299.42
-363.49
-406.9
-343.62
-416.91
-436.03
-381.39
-443.72
-415.58
-416.03
-411.74
-421.28
-413.68
-411.5
-505.47
-494.5
-422.88
-489.03
-495.7
-526.45
-524.88
-479.27
-541.18
-477.77
-521.36
-527.81
-498.91
-531.82
-497.45
-537.83
-506.7
-460.47
-507.96
-480.2
-516.4
-513.63
-494.18
-430.45
-460.02
-458.64
-428.05
-447.29
-484.14
-486.31
-414.57
-477.62
-463.09
-440.08
-447
-444.77
-392.77
-332.06
-392.3
-352.33
-364.92
-355.87
-329.77
-303.95
-321.87
-303.56
-230.26
-298.63
-259.66
-193.26
-242.27
-212.87
-242.93
-223.75
-175.99
-118.83
-188.73
-82.57
-79.89
-133.24
-69.5
-50.31
-13.78
-27.22
4.51
-43.2
-7.55
30.95
77.82
55.19
64.14
78.15
104.48
133.35
119.25
104.04
126.12
209.95
140.63
201.79
172.99
268.87
192.57
248.3
290.18
279.86
260.12
336.33
352.07
312.96
358.64
304.18
372.95
385.23
357.91
368.96
358.14
455.76
402.56
398.97
431.92
410.08
446.51
407.54
486.61
443.71
454.1
1975.75
514.42
443.22
458.48
532.21
513.09
447.86
475.18
521.41
502.78
526.61
524.29
473.65
489.48
478.49
484.28
495.89
493.29
529.82
461.23
483.46
519.77
488.73
459.49
442.86
461.84
475.33
409.65
474.75
380.26
376.53
435.88
438.35
429.28
367.16
348.36
360
316.34
330.51
373.23
316.82
346.23
248.17
305.41
294.03
291.79
193.63
253.19
176.51
197.75
142.54
203.78
120.35
175.12
82.17
122.53
88.06
72.71
73.33
43.92
85.65
63.04
27.34
-39.84
14.15
-10.91
-54.21
-49.43
-97.72
-98.02
-158.37
-106.27
-169.08
-163.51
-174.4
-151.78
-221.02
-248.92
-232.58
-226.16
-215.61
-227.45
-318.26
-307.09
-261.16
-357.38
-301.23
-341.33
-361.8
-373.29
-388.94
-427.62
-348.07
-416.8
-367.11
-421.6
-437.64
-462.93
-406.82
-411.39
-482.31
-442.92
-415.85
-431.17
-432.34
-489.97
-530.09
-474.27
-456.27
-465.39
-502.12
-495.87
-533.93
-481.62
-472.28
-497.9
-455.52
-459.94
-535.92
-521.12
-519.7
-531.77
-537.36
-466.73
-501.08
-472.72
-484.02
-488.56
-476.63
-468.34
-480.66
-400.7
-425.82
-414.94
-369.28
-419.05
-377.88
-351.27
-416.55
-372.03
-318.16
-370.33
-329.61
-351.75
-334.95
-283.65
-326.91
-327.62
-223.28
-264.03
-267.52
-212.86
-230.22
-161.56
-143.47
-165.2
-125.2
-111.45
-88.54
-133.61
-145.68
-99.16
-102.92
-24.56
-38.91
-62.75
-34.43
1497.57
-11.34
13.53
58.83
23.01
70.54
118.87
158.48
80.88
176.97
178.91
125.94
170.78
225.51
223.38
257.02
265.27
221.05
307.89
273.72
277.82
321.36
284.14
297.54
378.05
349.53
358.57
341.46
344.28
371.25
439.56
393.14
423.1
379.19
415.44
462.18
409.41
462.62
456
442.44
419.65
436.86
524.42
462.21
533.23
447.47
461.49
511.69
541.69
448.56
506.74
466.53
548.39
461.61
479.73
524.53
451.65
526.14
469.03
473.79
485.83
488.64
462.16
499.3
474.85
489.16
481.91
497.7
456.28
410.64
379.43
370.34
417.29
410.42
389.21
404.92
375.56
410.02
314.63
349.13
359.5
327.37
327.49
332.31
269.85
226.72
239.17
254.39
234.77
172.87
207.03
144.34
151.96
161.96
190.92
165.09
81.94
63.7
49.76
94.92
29.18
48.33
-12.1
25.36
14.8
-65.54
16.62
-86.88
-17.44
-86.26
-45.01
-108.92
-127.76
-156.84
-144.61
-129.27
-197.37
-223.83
-199.87
-203.62
-217.77
-234.63
-267.02
-236.78
-253.15
-300.48
-357.9
-364.56
-362.59
-390.64
-362.98
-375.74
-398.69
-345.45
-412.73
-384.83
-444.85
-373.92
-394.04
-388.82
-476.17
-475.48
-459.18
-490.23
-481.07
-509.67
-453.22
-462.63
-474.57
-461.03
-541.27
-496.79
-476.51
-475.83
-529.29
-517.56
-468.09
-465.44
-459.1
-483.68
-529.59
-501.58
-487.17
-497.71
-493.21
-492.3
-491.63
1064.4
-423.9
-431.02
-496.59
-399.92
-421.84
-447.93
-402.39
-466.94
-405.7
-432.58
-365.97
-392.9
-367.8
-376.47
-377.11
-351.01
-303.55
-356.83
-260.14
-269.64
-287.66
-267.8
-275.36
-248.62
-199.19
-202.94
-233.56
-186.51
-157.86
-123.7
-126.3
-87.28
-135.62
-92.62
-138.94
-112.64
-44.9
-50.02
-75.97
11.97
-20.17
8.62
15.47
66.68
99.66
107.08
47.27
130.86
157.05
165.37
151.28
156.72
167.83
210.53
186.72
220.66
275.92
247.08
290.34
280.16
273.93
335.2
307.29
321.83
363.99
302.96
381.16
387.88
372.5
377.29
414.7
399.76
418.46
423.69
431.61
459.05
490.94
492.69
424.5
435.88
445.78
480.19
431.14
448.17
480.67
439.15
518.23
529.52
458.64
450.23
459.15
513.41
534.14
477.17
460.56
500.28
500.96
448.56
527.69
526.53
441.07
437.62
489.96
478.36
486.49
470.02
459.87
428.23
484.13
479.53
392.07
389.35
421.74
422.51
385.67
411.48
340.4
408.6
339.98
393.42
318.9
314.31
268.56
266.63
333.05
244.79
221.02
225.16
207.59
231.94
163.01
225.18
142.38
213.02
133.4
106.16
121.31
124.69
63.69
72.33
97.58
78.75
-7.04
-0.66
6.91
33.19
-3.92
-76.93
-97.31
-74.01
-59.63
-104.55
-87.07
-159.16
-164.1
-209.73
-206.23
-198.43
-207.93
-180.7
-270.64
-253.55
-220.58
-297.82
-309.52
1240.66
-291.04
-360.32
-371.61
-358.49
-365.09
-392.38
-323.04
-369.97
-432.63
-421.04
-454.56
-421.47
-461.89
-415.06
-401.59
-420.56
-460.36
-498.26
-503.04
-443.42
-478.76
-447.93
-504.63
-515.67
-518.67
-447.1
-496.27
-491.13
-534.87
-493.13
-484.72
-511.37
-496.47
-472.44
-458.16
-466.17
-479.43
-511.42
-500.42
-445.98
-501.81
-517.65
-435.88
-466.91
-451.52
-460.04
-463.43
-446.08
-431.54
-435.22
-390.66
-368.41
-410.72
-370.12
-349.67
-384.09
-398.59
-395.81
-331.34
-341.56
-275.69
-273.6
-299.78
-292.87
-255.65
-278.39
-231.49
-269.5
-223.21
-243.8
-171.06
-177.13
-194.53
-183.82
-117.65
-118.73
-113.67
-104.15
-59.51
-62.45
-45.54
-41.67
2.49
47.34
-24.68
48.66
43.19
90.29
44.57
60.53
75.92
158.92
145.4
111.08
184.58
164.39
183.83
169.36
230.49
239.14
295.34
286.18
286.81
253.96
267.5
293.49
340.16
325.52
353.35
357.09
346.29
340.96
426.61
411.57
386.93
424.57
386.78
443.39
484.25
415.68
431.11
505.98
432.19
479.3
489.79
510.17
518.75
518.46
490.47
504.97
526.45
459.81
466.02
508.59
469.29
470.41
451.15
474.63
454.47
502.55
466.42
478.49
522.85
513.04
523.96
489.47
434.99
488.19
424.22
485.64
494.72
458.39
457.85
425.67
376.84
443.66
372.98
410.01
425.26
370.98
344.38
354.3
290.81
322.89
315.86
336.91
1761.41
312.51
296.12
213.94
229.04
273.52
192.1
172.76
198.61
152.33
172.82
162.43
162.78
161.12
98.87
62.97
51.35
47.19
76.03
39.76
16.59
20.55
5.4
-73.55
-33.78
-82.76
-127.05
-73
-76.54
-117.41
-189.06
-122.06
-146.92
-219.83
-190.19
-230.66
-206.03
-288.19
-213.81
-291.62
-314.47
-291.97
-288.88
-358.68
-359.4
-293.23
-321.82
-361.76
-376.72
-421.42
-355.39
-436.47
-436.34
-418.15
-383.3
-455.68
-466.77
-428.76
-437.3
-492.56
-426.5
-517.73
-444.12
-457.33
-483.84
-469.2
-450.95
-504.44
-466.38
-449.31
-532.25
-527.69
-492.17
-475.24
-518.54
-469.8
-523.87
-460.55
-480.39
-500.19
-460.24
-513.27
-431.82
-479.42
-513.73
-511.71
-479.49
-456.26
-437.04
-421.85
-421.54
-408.88
-434.22
-375.77
-434.58
-354.87
-330.5
-393.06
-317.48
-353.82
-354.3
-299.91
-266.4
-290.39
-279.1
-314.88
-272.13
-242.22
-265.02
-219.19
-260.55
-231.2
-166.15
-169.41
-165.95
-100.91
-117.6
-65.05
-91.66
-61.63
-27.05
-7.9
4.35
-35.6
-44.53
4.72
63.16
78.51
91.44
37.63
42.27
143.23
146.88
104.05
173.84
155.93
139.24
225.7
148.01
210.91
250.18
278.61
224.95
277.65
229.79
310.58
286.09
308.06
342
359.29
354.9
321.32
372.27
350.92
338.71
414.3
380.24
460.79
393.96
427.71
403.17
473.54
496.48
457.23
503.17
419.54
463.42
1994.09
482.55
512.15
453.79
443.26
494.02
544.12
470.76
495.07
525.91
517.49
511.48
516.67
494.82
518.32
508.55
475.32
501.83
494.74
529.51
486.52
476.72
499.58
476.31
504.23
457.48
392.68
433.85
422.44
412.5
397.04
440.48
382.07
408.21
374.89
367.47
308.86
327.97
357.2
333.11
331.77
264.42
275.67
273.61
229.55
270.15
237.27
245.58
167.1
144.98
161.64
116.29
122.47
103.58
160.22
68.13
87.21
71.34
13.18
76.3
8.8
49.98
22.62
-2.4
-69.88
-94.38
-106.8
-121.75
-93.93
-148.06
-171.3
-164.24
-104.97
-165.81
-213.68
-158.06
-250.62
-267.88
-244.91
-236.12
-282.28
-231.64
-323.96
-342.53
-326.64
-364.36
-290.33
-372.45
-403.62
-331.48
-365.55
-361.56
-409.02
-415.39
-442.17
-415.47
-403.78
-445.57
-453.91
-437.44
-414.15
-466.46
-432.15
-515.87
-439.51
-502.11
-466.93
-461.97
-514.68
-455.04
-453.91
-451.49
-539.27
-517.67
-533.83
-486.5
-455.39
-458.84
-463.46
-450.07
-481.06
-448.8
-456.73
-440.88
-493.47
-519.84
-488.61
-439.45
-408.68
-430.48
-399.63
-429.43
-404.84
-431.31
-410.34
-366.54
-417.65
-341.79
-394.07
-350.55
-309.06
-313.94
-358.81
-302.7
-305.43
-325.08
-269.72
-241.08
-299.41
-252.92
-222.36
-193.36
-251.15
-153.9
-189.33
-152.62
-99.63
-160.06
-160.29
-127.17
-116.35
-53.96
-31.37
-41.76
-25.9
28.75
1500.86
19.34
75.87
7.79
89.97
120.43
136.79
109.87
108.67
96.87
111.78
149.51
188.51
214.65
188.91
174.89
256.34
285.18
281.08
319.24
292.56
264.16
290.08
271.48
287.08
391.49
332.12
398.52
344.63
389.26
420.88
433.3
437.31
410.88
451.85
469.09
491.51
435.34
414.35
436.54
469.53
484.88
457.12
455.79
451.24
536.57
485.19
449.76
488.07
480.91
461.66
510.58
509.79
456.59
512.58
534.73
532.23
458.92
446.71
469.49
463.9
491.09
473.77
518.04
497.29
463.06
472.14
488.95
452.72
442.61
426.5
398.68
369.9
387.58
348.23
362.47
379.41
367.39
374.72
377.63
320.23
357.09
345.39
301.08
254.01
249.62
233.83
225.79
249.44
254.26
189.28
211.28
176.39
166.67
177.27
99.69
79.33
108.24
67.55
98.58
27.35
18.66
10.64
-12.3
48.53
-18.93
9.51
-34.19
-88.23
-92.81
-133.22
-145.3
-143.97
-156.3
-120.42
-195.19
-189.8
-141.38
-208.54
-195.17
-235.03
-291.45
-305.83
-227.91
-278.52
-342.07
-258.96
-313.68
-354.73
-301.87
-327.02
-317.98
-361.43
-418.27
-356.59
-355.97
-420.74
-430.56
-447.04
-480.8
-488.5
-416.04
-504.46
-488.75
-511.61
-455.99
-524.13
-520.86
-486.59
-466.93
-529.71
-466.47
-475.48
-498.04
-523.53
-510.87
-541.16
-503.76
-490.92
-509.97
-508.09
-449.73
-526.07
-519.97
-480.81
-527.04
-436.11
985.45
-495.63
-428.99
-425.13
-494.85
-448.53
-448.23
-453.12
-405.07
-424.89
-454.22
-390.81
-356.96
-395.4
-356.08
-380.69
-375.44
-320.38
-304.39
-315.48
-278.9
-240.88
-309.05
-293.96
-223.52
-243.45
-253.69
-179.05
-211.4
-164.39
-205.46
-130.93
-181.38
-95.22
-73.13
-103.7
-121.92
-53.37
-71.96
-62.3
-60.62
44
39.86
-0.71
21.37
7.24
80.53
91.94
61.6
73.35
91.14
140.84
194.75
168.57
204.48
237.55
244.17
202.25
270.18
227.88
260.52
302.58
242.2
331.6
312.88
338.03
370.66
333.46
326.47
392.02
343.76
343.32
427.81
428.24
435.45
473.65
408.78
459.25
413.38
425.63
433.62
468.63
509.24
475.77
482.91
524.58
459.88
474.91
467.83
506.53
522.28
480.67
489.73
463.67
532.28
461.88
469.77
471.96
541.58
443.9
472.07
466.54
529.18
476.27
430.73
494.37
483.67
429.67
447.44
413.55
420.85
442.82
434.83
438.89
433.78
404.24
406.66
410.14
343.03
392.76
306.4
371.4
282.44
339.72
350.98
265.93
324.95
263.72
247.22
245.31
271.93
220.95
202
137.17
125.66
156.74
94.59
113.66
145.01
140.18
40.44
101.12
48.96
41.49
58.29
25.59
-18.3
-59.12
-6.48
-28.8
-110.53
-79.9
-134.19
-105.93
-85.32
-155.43
-163.7
-209.88
-143.79
-223.9
-167.13
-236.28
-269.53
-277.7
-239.55
-249.07
-314.46
1172.83
-336.57
-306.54
-299.86
-349.3
-341.05
-340.84
-385.24
-372.64
-440.76
-402.35
-381.64
-439.66
-388.47
-410.19
-460.72
-464.61
-451.87
-416.45
-446.16
-488.08
-445.64
-454.45
-497.53
-515.83
-512.53
-506.59
-499.22
-452.79
-539.37
-457.94
-520.15
-483.93
-504.07
-501.51
-458.5
-491.45
-466.71
-486.41
-525.25
-507.03
-525.49
-464.96
-440.34
-418.5
-500.2
-469.84
-432.27
-401.84
-456.85
-370.55
-399.28
-372.06
-352.48
-413.96
-335.8
-367.72
-391
-375.77
-282.14
-266.81
-336.35
-286.09
-243.07
-241.82
-256.23
-247.02
-195.18
-196.94
-214.49
-181.08
-184.72
-164.39
-101.69
-86.88
-91.01
-74.84
-68.29
-53.35
-88.51
-33.24
-43.71
-31.67
13.33
3.31
2.95
2.99
47.81
123.72
144.08
70.03
163.84
129.19
140.23
204.85
190.2
213.04
203.62
249.05
282.36
252.36
289.26
239.7
300.34
278.28
345.66
352.62
339.43
316.28
366.06
383.96
367.87
370.93
372.92
389.34
376.68
374.82
380.8
422.73
437.21
493.81
438.87
480.36
458.73
513.8
487.73
502.62
491.55
506.61
461.75
473.14
501.98
488.31
523.91
512.06
544.11
471.52
462.85
537.02
495.36
494.55
518.54
441.96
458.88
460.35
495.08
458.99
441.14
441.44
443.69
412.16
468.91
476.94
460.83
372.89
360.54
388.41
342.71
371.99
355.07
322.6
328.02
340.04
366.04
330.77
344.44
1803.6
237.89
238.65
229.22
283.6
234.21
180.67
207.06
178.34
209.25
137.96
150.39
161.61
94.67
58.62
79.94
31.47
73.56
22.59
55.65
-6.1
-39.16
-7.18
-11.38
-64.39
-106.29
-117.85
-83.59
-129.8
-110.38
-166.5
-151.53
-206.66
-130.92
-208.07
-233.03
-260.6
-210.1
-203.43
-258.77
-299.46
-305.73
-308.24
-345.1
-326.52
-364.99
-312.85
-357.2
-329.08
-403.02
-403.32
-412.01
-374.75
-405.12
-450.34
-413.24
-440.67
-412.05
-454.42
-499.88
-429.81
-507.34
-437.28
-491.85
-520.44
-532.72
-513.99
-495.16
-467.71
-483.02
-521.05
-480.53
-497.82
-471.88
-462.09
-495.4
-514.04
-536.75
-492.93
-520.16
-519.57
-459.81
-482.96
-495.87
-489.76
-496.47
-478.45
-459.4
-474.39
-422.05
-473.43
-382.96
-456.98
-416.58
-404.99
-365.02
-347.67
-380.7
-337.79
-360.43
-330.18
-288.32
-319.66
-281.93
-301.83
-276.56
-265.92
-241.09
-294.34
-274.92
-179.03
-184.29
-191.78
-136.67
-196.3
-164.58
-107.28
-152.06
-115.5
-69.63
-90.76
-87.95
-86.51
-8.21
-17.53
-1.38
58.26
50.51
65.67
18.55
91.69
89.4
118.73
94.07
120.22
150.93
202.15
211.75
224.94
205.62
261.85
214.66
279.38
276.63
259.02
294.86
247.02
334.04
353.59
323.49
346.01
370.16
366.86
338.33
366.85
433.25
429.69
363.21
419.2
472.52
410.3
490.73
434.51
424.7
455.83
443.79
511.35
2024.15
457.44
510.94
479.18
446.78
452.79
510.67
463.17
485.72
518.53
533.73
477.08
531.05
485.48
510.6
518.76
532.29
459.11
481.8
530.2
466.63
501.63
482.95
500.21
491.11
422.18
412.22
466.73
414
424.14
385.82
372
361.63
371.96
353.86
414.33
381.98
328.26
314.4
355.08
303.05
286.56
324.97
228.23
268.64
262.42
221.88
199.21
160.66
210.67
154.6
143.37
117.21
143.25
115.89
73.81
44.44
111.81
67.8
62.56
46.79
-12.34
-47.47
-37.78
-39.17
-34.51
-57.33
-49.82
-101.87
-133.94
-150.49
-177.31
-139.94
-170.83
-147.48
-166.25
-167.33
-247.47
-223.7
-240.47
-216.27
-309.42
-232.59
-303
-280.15
-364.53
-353.96
-387.75
-306.99
-391.09
-392.61
-405.73
-384.9
-388.77
-360.98
-458.78
-382.23
-442.73
-405.59
-413.61
-423.7
-493.1
-421.97
-511.14
-443.79
-434.4
-530.43
-504.18
-498.46
-472.96
-474.34
-525.41
-499.52
-452.85
-540.65
-482.85
-521.77
-520.48
-463
-518.45
-518.34
-457.5
-527.96
-434.53
-497.74
-517.68
-449.45
-416.33
-495.78
-497.04
-474.65
-473.44
-403.1
-450.54
-399.85
-434.06
-385.17
-371.6
-344.86
-413.03
-368.39
-350.72
-320.47
-356.47
-359.25
-315.66
-298.83
-272.98
-246.24
-282.69
-194.91
-237.25
-190.06
-221.84
-224.53
-160.68
-148.74
-120.7
-154.64
-96.56
-75.49
-117.65
-29.36
-2.41
-57.4
-44.83
27.39
1474.7
47.85
54.68
66.42
92.5
70.78
79.15
98.01
98.55
95.52
146.69
211.82
233.68
237.92
196.57
207.04
281.31
215.72
252.33
241.45
256.3
262.2
292.99
356.31
316.58
377.23
345.76
342.55
343.27
368.19
408.91
436.99
425.95
447.25
467.22
435.92
414.98
465.05
485.69
501.93
450.49
486.05
493.86
474.18
444.69
469.44
492.82
536.16
526.76
449.49
470.59
456.87
521.92
523.96
478.79
521.51
486.99
482.59
465.46
473.09
487.95
454.49
452.96
498.07
511.56
416.27
497.48
477.43
397.81
385.77
464.29
434.36
396.2
419.62
372.32
392.21
387.65
357.42
395.06
358.55
308.04
294.71
321.76
265.94
279.44
249.99
210.36
269.41
193.7
188.35
210.13
187.97
216.86
132.87
131.52
121.41
93.15
142.46
78.93
107.82
10.82
-11.36
-0.6
6.39
-31.82
-41.62
-65.68
-80.04
-57.32
-82.19
-104.47
-84.62
-161.61
-108.22
-191.82
-157.19
-228.5
-224.51
-211.12
-268.17
-275.32
-208.47
-312.8
-280.41
-319.96
-334.86
-268.71
-345.52
-358.15
-351.11
-396.58
-358.53
-329.9
-402.53
-386.28
-383.07
-448.41
-384.26
-423.54
-485.93
-469.72
-450.62
-445.21
-491.4
-512.28
-427.34
-445.11
-488.78
-467.81
-445.94
-537.2
-516.52
-529.15
-481.92
-536.37
-462.57
-451.79
-547.97
-514.86
-508.64
-515.15
-497.2
-507.3
-441.37
-516.77
-516.5
1071.31
-510.79
-481.22
-442.72
-503.41
-477.01
-407.23
-443.15
-388.81
-441.53
-361.67
-429.02
-351.34
-393.98
-380.85
-365.21
-342.52
-378.3
-301.51
-356.52
-315.62
-256.33
-248.05
-290.38
-241.79
-206.08
-217.46
-166.12
-182.73
-140.24
-203.39
-147.28
-126.78
-93.22
-120.23
-102.79
-92.3
-110.78
-25.32
-46.67
12.45
-58.22
-39.78
19.86
1.61
21.96
76.65
89.62
60.75
68.38
123.95
188.34
198.9
123.05
228.82
184.61
259.07
186.97
204.5
294.28
265.19
244.18
317.51
285.25
304.72
359.08
319
332.23
400.71
346.67
374.02
360.4
399.76
374.07
365.56
399.63
399.73
452.62
450.04
444.13
464.77
464.83
459.96
517.21
448.41
463.7
451.22
527.55
528.87
510.21
467.6
471.44
545.95
526.84
490.05
488.81
538.28
535.37
487.65
490.3
498.04
468.53
450.51
458.95
429.77
486.74
503.61
418.57
473.28
440.65
470.05
442.6
405.4
435.32
374.75
450.22
382.46
383.72
387.94
382.81
356.26
292.65
304.88
283.45
298.63
299.4
274.24
284.25
260.55
193.7
191.31
206.6
172.5
235.44
213.77
152.52
181.06
133.23
145.05
95.39
81.71
66.99
60.96
72.25
15.94
10.68
-20.12
-27.7
-63.49
-51.23
-45.62
-51.04
-121.33
-109.43
-77.58
-89.2
-152.91
-201.62
-145.52
-204.62
-180.42
-200.24
-211.05
-209.55
-248.64
-291.46
-288.47
1184.24
-334.64
-323.23
-358.9
-331.54
-324.86
-401.1
-335.25
-368.82
-383.46
-391.69
-394.93
-405.35
-478.02
-481.12
-453.25
-415.21
-427.01
-422.11
-438.45
-454.5
-525.6
-447.89
-485.51
-491.29
-453.62
-483.05
-513.78
-539
-482.56
-526.85
-540.68
-457.85
-532.22
-485.81
-518.76
-474.98
-463.08
-445.94
-499.18
-514.27
-459.05
-429.58
-444.47
-454.83
-469.58
-453.21
-485.76
-456.35
-430.62
-451.57
-443.05
-364.81
-352.74
-340.15
-406.73
-390.98
-331.85
-363.27
-352.7
-302.87
-316.56
-272.12
-277.12
-240.44
-253.29
-210.64