1054.69
-444.61
-436.88
-429.45
-409.41
-429.02
-441.37
-475.68
-406.4
-398.7
-372.61
-350.85
-389.8
-410.08
-334.96
-398.58
-392.86
-348.89
-291.11
-349.7
-263.01
-260.17
-270.32
-235.37
-266.37
-284.31
-221.99
-257.94
-187.08
-186.42
-205.65
-148.41
-135.89
-128.67
-123.4
-111.13
-109.54
-113.07
-29.9
-50.78
-13.51
-3.76
25.22
9.21
62.16
90.08
31.8
121.55
50.26
70.13
127.26
141.36
176.35
212.22
189.68
175.98
174.81
214.99
273.26
287.06
262.13
245.2
252.7
305.45
357.7
302.37
348.4
399.4
312.01
393.44
395.94
348.62
369.7
415.96
451.02
419.64
390.08
402.82
482.28
433.49
426.51
419.52
500.96
458.15
437.55
501.07
470.88
534.43
498.92
526.84
509.16
524.15
526.25
518.15
546.84
528.86
535.08
520.87
481.46
521.48
484.28
439.91
502.18
503.16
477.31
476.01
428.68
427.68
490.55
461.44
475.26
398.27
444.88
464.46
455.41
374.11
358.13
372.17
394.13
359.58
382.07
367.38
321.18
277.18
322.81
326.81
271.91
275.74
229.62
209.79
228.53
182.2
204.49
229.89
159.11
146.68
99.44
126.8
161.04
64.83
116.81
81.31
96.7
68.97
-11.77
51.44
-32.07
-30.17
-50.17
-23.92
-93.79
-88.22
-83.55
-140.02
-135.72
-188.19
-148.5
-131.41
-202.96
-150.89
-201.23
-186.57
-257.21
-295.79
-269.28
-311.04
-241.96
1204.18
-344.32
-352.05
-349.99
-319.8
-366.44
-365.95
-378.62
-420.77
-419.46
-378.49
-454.71
-429.12
-392.25
-399.22
-403.03
-501.38
-491.09
-492.87
-464.14
-434.78
-431.07
-439.99
-450.5
-495.44
-491.15
-470.62
-499.97
-471.69
-502.39
-452.26
-491.17
-518.08
-513.83
-458.11
-529.17
-479.02
-505.42
-475.79
-521.31
-449.77
-447.95
-425.48
-514.11
-421.92
-476.6
-469.04
-464.7
-433.49
-469.2
-389.75
-393.27
-414.24
-398.1
-404.99
-352.57
-359.57
-387.8
-339.55
-361.73
-282.88
-298.97
-308.62
-240.29
-277.73
-208.5
-282.06
-234.59
-211.72
-161.73
-151.84
-174.1
-159.1
-155.78
-130.51
-82.22
-96.22
-52.82
-48.63
-60.41
-10.9
-70.1
-22.2
26.4
-13.91
60.24
93.71
68.91
36.07
59.82
98.96
94.7
152.03
163.47
169.36
175.56
159.97
198.63
270.44
279.67
255.55
298.87
275.87
246.01
272.12
283.63
369.66
383.14
362.35
388.57
324.65
341.9
402.97
445.23
372.54
456.38
447.33
477.76
436.83
437.07
417.65
458.27
477.84
512.11
455
442.33
459.77
492.74
489.56
476.76
484.31
498.54
462.87
470.94
514.64
498.42
486.51
484.82
478.61
462.6
528.49
465.98
494.28
499.86
507.14
453.98
440.73
504.54
435.31
501.23
476.56
484.93
422.92
436.51
459.28
362.75
413.37
427.96
381.01
398.17
356.43
367.04
324.49
361.54
318.07
259.45
1774.41
241.85
233.66
299.04
272.7
276.54
247.84
220.84
150.01
223.97
206.85
130.74
131.36
73.13
82.09
78.86
81.76
27.82
25.53
22.14
-20.55
39.46
-40.02
-74.47
-2.82
-38.88
-81.64
-120.89
-91.53
-81.41
-170.8
-152.57
-121.56
-187.36
-187.84
-253.09
-191.48
-263
-250.41
-291.36
-318.58
-321.59
-288.21
-292.18
-321.05
-329.86
-294.54
-350.46
-326.4
-399.76
-399.71
-378.62
-402.05
-408.08
-384.36
-387.66
-389.49
-396.77
-414.53
-454.92
-507.56
-499.99
-514.36
-450.32
-511.59
-468.36
-501.42
-487.8
-523.07
-478.49
-497.77
-487.13
-455.72
-501.23
-458.8
-512.32
-499.6
-467.3
-541.87
-464.78
-455.91
-473.19
-508.92
-430.07
-423.5
-458.3
-469.9
-444.6
-418.63
-464.66
-398.09
-469.74
-425.09
-452.13
-396.94
-438.82
-368.6
-392.74
-395.7
-393.66
-315.93
-300.62
-347.32
-293.37
-296.96
-305.42
-248.21
-283.77
-256.72
-191.56
-182.79
-164.25
-168.32
-145.23
-174.56
-140.24
-100.27
-110.44
-93.14
-79.12
-68.12
-45.13
-75.33
-32.24
0.77
-45.75
3.05
-0.08
13.81
91.63
95.68
40.59
114.16
152.38
146.23
188.85
211.86
179.72
209.78
179.96
170.59
193.23
292.05
227.13
237.01
311.81
268.27
336.16
347.93
373.08
353.46
311.77
395.05
376.62
422.73
402.91
407
410.56
458.27
430
419.63
416.28
441.93
453.67
506.42
492.97
455.18
2022.15
492.51
463.4
495.78
455.53
521.61
483.63
544.78
468.13
522.05
535.21
524.49
488.63
522.66
515.22
533.47
518.34
492.47
455.41
500.61
451.9
435.26
476.47
426.33
457.95
497.83
485.68
450.34
442.71
393.72
386.67
430.44
383.76
359.38
412.35
327.09
316.75
334.66
321.24
331.3
286.19
269.85
334.73
305.89
226
294.3
196.08
175.12
218.6
234.67
209.09
115.23
161.92
184.41
162.08
83.93
71.54
31.92
80.29
35.23
28.61
67.15
29.41
5.54
-12.54
-89.59
-12.89
-111.59
-98.59
-64.07
-80.04
-158.59
-167.73
-161.24
-198.94
-165.82
-252.03
-190.64
-254.77
-206.61
-209.97
-220.1
-294.01
-295.69
-258.65
-272.49
-339.51
-378.92
-320.58
-352.29
-379.23
-353.29
-398.06
-441.81
-374
-417.36
-454.5
-410.1
-439.27
-497.53
-410.7
-434.85
-482.01
-473.8
-431.67
-490.22
-480.26
-487.1
-461.77
-454.43
-474.67
-533.92
-544.59
-539.34
-531.98
-486.15
-517.89
-463.67
-470.21
-527.23
-502.23
-479.51
-507.08
-472.29
-523.66
-505.38
-428.28
-476.48
-496.19
-454.65
-395.67
-480.64
-399.11
-422.96
-385.72
-429.71
-410.95
-375.89
-348.23
-342.52
-403.86
-344.72
-343.99
-315.83
-350.92
-298.7
-312.83
-245.18
-240.76
-241.07
-257.7
-188.57
-220.07
-238.63
-171.71
-207.28
-137.48
-154.31
-77.23
-142.51
-118.62
-120.83
-48.87
-24.63
-5.76
-9.5
-44.16
1558.49
30.02
52.05
26.74
87.48
85.55
119.77
76.6
175.96
96.89
147.91
138.88
173.16
187.92
185.6
205.34
237.61
223.78
242.37
311.15
273.44
276.22
335.89
307.58
316.8
395.88
353.81
409.35
397.72
343.66
407.09
418.79
460.61
470.4
456.21
472.09
414.14
407.93
467.59
508.26
451.82
435.84
456.18
527.79
442.95
530.45
445.93
469.33
456.02
523.39
470.91
466.13
505.06
504.5
514.58
487.97
504.7
492.09
479.78
488.61
498.23
444.07
470.26
503.53
514.25
436.62
437.73
480.88
415.12
442.69
409.57
462.29
426.91
435.53
350.45
383.95
395.67
387
298.36
359.12
370.31
318.3
307.05
318.36
238.19
271.38
299.83
193.65
195.77
238.48
206.37
196.13
139.41
127.97
160.21
119.72
147.43
48.05
83.81
41.92
90.51
41.69
62.44
34.56
-39.02
-69.67
-69.18
-94.42
-105.67
-70.87
-146.65
-71.64
-89.46
-133.15
-194.11
-188.01
-170.87
-152.07
-169.29
-267.44
-263.39
-208.49
-277.34
-240.05
-263.7
-253.62
-285.44
-336.55
-359.26
-329.39
-344.5
-401.29
-379.79
-428.91
-439.49
-396.66
-411.79
-430.44
-440.87
-437.72
-416.9
-449.27
-416.62
-477.96
-483.8
-443.84
-490.51
-446.31
-457.7
-447.2
-491.77
-507.13
-480.93
-481.07
-458.64
-451.04
-548.81
-479.47
-533.71
-537.39
-460.98
-536.63
-475.51
-449.58
-456.24
-506.91
978.87
-435.74
-465
-454.64
-492.47
-491.93
-402.88
-441.48
-382.48
-432.68
-393.84
-399.07
-404.3
-335.15
-329.67
-311.3
-360
-299.45
-355.55
-277.37
-276.47
-274.75
-256.88
-282.33
-253.97
-231.92
-263.47
-206.55
-166.19
-175.92
-170.38
-177.24
-94.36
-173.36
-163.68
-82.33
-105.85
-112.77
-36.73
-58.28
-13.51
-20.94
52.1
-16.02
6.76
80.4
23.77
121.32
87.53
117.85
136.65
161.37
105.86
156.12
134.12
200.75
209.2
192.46
272.47
217.08
260.66
264.45
244.08
252.76
290.97
278.89
341.55
329.75
344.7
368.31
367.69
368.61
346.73
430.66
395.22
375.86
468.59
388.02
457.39
434.01
440.69
476.17
496.21
482.41
443.76
528.43
477.75
523.24
511.67
493.14
502.67
516.16
506.68
536.08
524.05
468.55
498.08
485.15
456.48
467.16
452.05
499.44
528.73
474.68
490.31
464.48
433.82
507.6
438.2
450.34
427.52
441.92
473.38
407.87
388.07
352.52
398.69
370.68
387.6
380.57
382.27
369.44
359.06
279.99
278.81
325.79
308.5
238.58
297.61
284.65
241.67
249.8
251.96
151.72
126.13
162.39
147.53
99.7
88.96
148.78
124.26
120.44
24.18
49.24
-6.49
-35.6
8.61
-4.49
-36.78
-23.97
-16.78
-81.13
-111.52
-149.88
-149.18
-155.86
-164.35
-189.13
-179.83
-163.33
-242.06
-263.14
-279.29
-292.51
-227.5
-232.77
-293.93
1180.05
-276.89
-275.56
-311.52
-299.48
-365.07
-379.54
-418.81
-385.45
-370.44
-405.44
-421.71
-468.53
-440.78
-416.07
-479.74
-467.13
-423.31
-421.7
-516.27
-461.35
-463.38
-466.97
-444.38
-482.8
-501.9
-528.64
-478.69
-524.72
-482.8
-505.98
-463.55
-540.09
-519.78
-530.47
-475.56
-495.68
-495.75
-452.86
-474.08
-451.52
-508.44
-473.53
-496.39
-454.99
-483.57
-422.28
-458.96
-461.07
-428.29
-380.12
-368.34
-420.43
-378.2
-423.98
-392.08
-375.83
-334.43
-355.84
-331.68
-298.2
-353.18
-289.35
-284.16
-305.33
-271.55
-241.35
-279.23
-258.37
-205.68
-222.4
-131.02
-187.86
-192.32
-157.25
-153.03
-122.31
-138.21
-112.42
-44.64
-54.56
-31.25
-62.21
28.54
63.78
32.54
89.52
86.31
94.73
54.6
88.35
160.59
129.01
168.8
117.75
175.21
156.3
242.06
172.09
187.4
225.65
294.72
283.47
310.3
299.33
314.07
316.92
333.68
348.32
363.99
353.43
409.51
369.93
351.21
365.02
382.2
446.25
438.81
405.4
486.77
446.81
435.8
496.44
467.45
516.43
466.61
523.12
469.22
467.72
487.65
454.81
515.38
510.06
466.93
452.77
496.08
483.18
467.86
540.45
463.5
482.95
496
514.15
519.31
519.43
490.18
424.44
437.44
496.95
443.59
426.3
435.48
431.19
384.45
470.75
429.49
449.68
433.27
339.34
394.53
368.43
352.92
379.32
320.71
363.44
340.71
345.88
1815.81
301.89
216.9
278.19
252.25
227.04
223.19
205.22
218.47
139.48
131.28
104.16
149.91
126.29
95.1
57.64
47.36
47.03
50.86
-12.09
-10.3
30.31
12.03
-77.25
-40.58
-53.1
-86.28
-63.01
-99.22
-95.77
-112.32
-141.41
-146.14
-182.54
-250.75
-240.41
-235.07
-257.69
-245.17
-240.41
-305.51
-280.76
-335.9
-327.29
-306.37
-381.38
-323.64
-362.41
-406.69
-414.95
-412.05
-397.84
-447.62
-433.84
-380.73
-444.37
-471.56
-457.15
-427.31
-466.86
-498.81
-447.8
-498.41
-491.08
-520.06
-536.88
-499.37
-530.91
-538.35
-460.6
-493.46
-450.46
-481.41
-536.95
-462.72
-519.3
-504.17
-530.53
-468.41
-477.47
-521.83
-492.05
-497.33
-470.39
-503.97
-419.63
-472.42
-492.75
-432.78
-404.18
-434.8
-395.67
-423.99
-403.32
-439.38
-362.54
-347.37
-380.6
-356.04
-324.6
-294.82
-339.81
-275.17
-284.23
-313.71
-295.86
-280.93
-214.44
-203.38
-223.39
-169.01
-238.24
-227.81
-195.86
-109.66
-123.39
-105
-65.3
-125.86
-112.36
-96.03
-69.26
-84.25
-45.99
-54.62
-9.14
40.83
82.61
35.83
36.95
80.74
132.89
70.89
161.78
129.49
163.88
138.76
199.29
185.81
232.09
250.55
258.71
214.94
301.82
253.93
273.02
332.19
305.79
362.25
353.08
386.59
389.14
330.09
383.82
399.13
418.41
436.22
465.55
467.08
430.53
455.57
433.11
436.18
501.69
429.18
461.58
496.7
505.97
447
437.74
445.43
511.76
479.88
480.53
469
545.46
518.8
528.63
461.3
544.06
502.2
475.6
534.91
465.28
511.15
450.98
452.08
520.48
467.39
468.64
432.15
472.57
455.11
469.7
473.63
410.64
398.08
417.73
348.88
413.42
384.31
396.92
342.28
340.5
287.89
348.12
317.43
296.57
317.57
229.73
226.08
256.56
281.8
228.69
186.16
230.37
154.17
140.5
197.57
143.18
166.72
81.88
56.35
40.85
88.81
62.65
-5.44
20.32
56.55
7.33
8.83
12.19
-11.03
-30.45
-67.92
-51.3
-97.57
-100.01
-161.01
-145.58
-142.96
-202.67
-212.64
-207.39
-190.54
-283.84
-256.49
-297.1
-276.35
-332.62
-265.01
-279.62
-277.15
-320.86
-376.35
-394.65
-329.06
-420.21
-340.21
-391.14
-416.3
-412.59
-378.91
-427.01
-456.72
-402.85
-445.25
-492.37
-500.66
-519.74
-467.97
-491.68
-530.91
-518.59
-475.27
-450.84
-455.79
-470.33
-490.49
-518.25
-476.47
-521.62
-461.55
-517.41
-496.59
-495.67
-464.24
-476.57
-487.56
-458.58
-500.07
-515.27
-505.91
-504.96
-472.5
-461.28
-441.89
-406.94
-441.42
-446.23
-449.2
-404.3
-368.36
-401.2
-351.48
-363.89
-349.07
-366.7
-341.1
-371.66
-322.62
-282.15
-309.38
-264.73
-264.13
-300.48
-191.28
-213.12
-210.44
-228.55
-179.35
-166.21
-182.78
-190.34
-151.24
-123.51
-118.88
-93.09
-21.19
-33.18
-89.41
-56.56
11.63
1460.37
3.13
37.64
9.12
24.07
79.73
103.22
64.14
139.97
169.22
114.69
207.31
160.94
168
257.49
193.82
283.8
276.48
304.47
228.69
302.22
288.73
322.46
326.59
379.36
393.77
351.66
385.86
352.29
346.75
419.91
451.95
448.55
391.78
414.53
474.82
408.98
409.41
423.43
482.21
457.68
461.08
506.07
441.97
524.82
518.89
457.76
466.12
530.29
509.87
479.47
544.54
549.78
545.64
472.6
506.59
502.47
474.79
511.41
489.47
534
519.28
519.3
485.85
484.62
487.78
477.34
399.21
427.62
449.21
420.18
399.53
452.22
397.76
369.82
332.08
358.35
366.75
305.1
350.91
360.75
274.96
331.81
251.81
301.18
295.78
296.08
284.91
188.09
184.71
199.16
153.88
180.66
186.54
121.59
165.01
108.1
104.11
110.31
92.64
54.74
26.72
68.03
31.66
-18.12
29.8
-17.39
-87.39
-50.76
-46.55
-120.66
-150.08
-108.58
-101.24
-110.28
-151.11
-149.73
-231.39
-224.12
-177.68
-266.62
-271.95
-270.23
-311.36
-294.08
-253.86
-287.69
-359.53
-359.18
-361.2
-344.05
-393.92
-419.96
-343.86
-394.9
-423.44
-434.78
-383.11
-381.13
-391.89
-462.95
-451.17
-444.95
-445.57
-439.77
-484.37
-509.39
-491.43
-525
-514.6
-491.45
-478.72
-545.76
-485.58
-525.18
-494.5
-547.35
-467.25
-484.24
-474.51
-500.98
-533.62
-517.14
-510.34
-472.66
-516.26
-471.41
1070.35
-510.45
-477.35
-409.93
-406.89
-439.24
-417.26
-454.58
-390
-389.83
-353.51
-419.8
-357.49
-404.84
-359.22
-349.15
-319.91
-334.26
-297.66
-282.35
-283.85
-245.52
-227.77
-255.02
-264.07
-226.75
-254.8
-211.94
-200.81
-197.71
-115.5
-109.09
-145.27
-119.27
-91.55
-138.57
-82.59
-35.72
4.59
16.78
-9.16
-9.43
3.06
49.05
68.25
46.33
92.14
104.18
71.27
75.85
105.09
124.03
146.69
179.99
183.3
168.32
262.1
215.43
197.27
290.57
297.4
252.99
329.71
348.85
316.07
343.63
338.14
361.39
350.2
394.73
346.11
409.67
444.98
425.34
416.99
416.75
428.62
417.99
454.9
448.81
481.88
462.1
475.29
517.34
449.48
448.46
466.87
499.4
537.81
505.44
511.1
528.05
522.63
487.34
479.23
508.06
522.26
538.78
465.15
494.77
489.78
442.25
477.34
507.81
437.74
483.42
436.23
486.82
402.67
453.8
444.42
471.63
402.21
452.2
366.31
385.43
375.78
385.68
340.42
330.3
361.85
301.46
278.92
307.89
283.59
261.48
308.56
281.49
237.28
245.31
183.75
186.01
236.8
139.61
177.09
171.51
151.9
134.29
111.3
142.37
115.91
40.75
38.94
23.75
33.65
-9.42
2.06
-50.73
-12.57
-51.46
-94.01
-57.29
-103.81
-119.99
-105.75
-144.33
-190.02
-173.57
-167.43
-178.2
-264.48
-189.79
-242.62
-285.81
-271.42
-242.46
-247.95
-258.15
-343.62
-339.37
-368.76
-307.52
-355.25
-396.93
-367.31
-349.46
-364.93
-436.52
-445.61
-398.35
-405.17
-426.72
-427.67
-469.96
-430.5
-474.32
-424.79
-435.94
-484.95
-470.24
-475.51
-530.1
-540.85
-537.45
-521.44
-496.35
-489.04
-502.68
-518.83
-489.2
-517.46
-513.99
-503.24
-494.54
-485.63
-437.1
-466.67
-520.26
-490.75
-486.49
-499.62
-504.45
-458.99
-419.61
-413.62
-398.61
-433.34
-455
-419.67
-388.03
-377.43
-424.59
-328.77
-324.15
-304.82
-362.91
-319.31
-303.45
-291.17
-253.55
-225.49
-251.77
-204.97
-266.18
-201
-200.21
-206.7
-181.54
-196.48
-148.73
-102.5
-140.55
-122.12
-67.86
-109.72
-90.87
-91.12
5.77
-48.02
-3.99
8.91
8.5
25.34
13.68
35.44
96.49
133.77
84.16
110.04
142.6
192.72
200.86
200.72
227.39
174.43
240.18
222.39
242.66
226.21
327.55
301.38
352.23
283.94
295.84
331.61
300.67
365.93
399.27
416.06
383.21
445.42
370.82
393.75
416.15
404.14
480.14
448.2
426.89
490.45
436.05
421.74
476.49
476.42
502.42
454.42
462.85
537.01
527.17
463.64
471.95
536.38
533.66
486.43
464.02
546.63
507.83
526.98
471.34
536.07
438.56
486.05
484.92
435.13
457.28
443.03
412.81
411.96
482.8
455.34
408.87
441.94
377.19
424.98
446.24
389.59
364.08
319.01
359.95
387.68
315.46
309.4
339.11
298.99
1744.71
321.31
234.93
255.5
192.33
242.83
186.86
216.36
191.11
180.82
186.35
96.67
157.15
160.73
102.25
100.5
46.62
80.22
59.15
43.72
-7.78
33.55
4.05
-18.81
-87.23
-54.42
-50.48
-85.27
-112.79
-132.11
-174.69
-176.46
-150.79
-175.58
-208.56
-178.99
-220.68
-239.14
-277.07
-257.08
-290.75
-301.49
-262.85
-317.54
-305.01
-329.95
-368.74
-397.46
-382.95
-367.63
-353.05
-421.1
-408.74
-450.84
-431.39
-412.15
-420.42
-403.3
-432.74
-427.87
-433.64
-429.94
-488.96
-478.39
-520.33
-497.98
-462.22
-497.56
-490.03
-480.88
-478.41
-485.76
-507.76
-474.41
-489.17
-489.45
-448.15
-528.75
-535.97
-473.85
-516.38
-530.62
-481.02
-486.03
-435.04
-438.82
-429.47
-480.31
-422.82
-449.66
-432.99
-432.51
-377.7
-372.44
-435.96
-390.03
-386.6
-381.4
-346.63
-338.55
-332.71
-367.62
-307.99
-323.49
-247.08
-298.27
-228.46
-303.83
-216.06
-183.83
-245.39
-191.6
-196.24
-181.07
-158.16
-180.77
-92.21
-79.59
-79.03
-51.45
-78.38
-88.19
2.4
-73.24
-11.35
20.88
-2.85
27.73
88.63
110.89
105.53
45.24
155.05
160.94
184.08
131.58
167.03
200.84
183.44
205.32
231.99
236.85
261.71
240.06
279.31
298.59
272.68
293.96
289.3
287.71
371.14
346.25
326.84
351.34
402.56
430.59
394.84
369.57
411.31
437.14
484.76
451.56
494.63
426.62
504.67
494.43
433.88
1986.97
522.91
527.2
453.16
469.06
448.56
539.97
469.65
507
509.05
464.59
528.35
542.63
466.56
482.67
540.47
462.19
502.97
460.49
494.81
479.03
441.38
479.11
485.08
458.86
487.68
411.26
475.7
445.57
376.52
446.45
372.39
415.27
413.13
331.13
368.76
347.05
350.82
326.79
278.63
262.29
324.2
239.46
230.84
252.38
197.14
232.37
175.83
193.28
198.35
215.92
154.24
109.25
119.19
130.85
149.93
119.03
103.78
70.17
18.31
-12.83
44.39
7.78
-36.11
-49.73
-62.58
-49.65
-87.62
-77.83
-70.15
-164.93
-141.8
-130.24
-203.43
-137.1
-209.95
-157.5
-208.05
-241.61
-292.44
-308.73
-321.34
-290.94
-340.17
-320.63
-340.35
-301.76
-372.7
-323.47
-349.25
-347.97
-338
-375.42
-418.57
-389.88
-430.54
-415.71
-443.23
-437.02
-431.94
-418.7
-444.48
-442.81
-514.72
-508.94
-497.29
-494.07
-496.7
-481.56
-484.69
-484.34
-471.09
-504.65
-526.63
-467.11
-465.75
-473.93
-527.25
-487.74
-465.22
-480.68
-533.83
-473.85
-521.37
-511.19
-431.76
-461.31
-447.33
-452.44
-412.22
-395.04
-391.08
-451.21
-394.98
-376.82
-358.1
-347.66
-378.26
-330.23
-351.62
-350.62
-373.66
-306.69
-323.04
-325.81
-311.75
-285.35
-290.49
-248.65
-244.32
-252.92
-225.88
-195.95
-154.99
-156.76
-120.93
-175.29
-164.38
-124.03
-138.46
-114.51
-114.33
-105.74
-35.78
-67.89
-29.74
-43.63
6.05
53.4
53.66
70.34
109.7
92.64
88.51
76.03
141.89
144.92
204.8
185.55
231.19
232.85
242.47
184.48
226.94
301.75
232.86
278.19
311.61
346.14
343.11
288.26
301.18
318.75
345.52
350.46
366.74
348.7
410.64
451.63
421.98
381.15
421.11
460.07
464.26
439.77
445.29
440.94
472.48
470.15
494.57
493.76
464.36
513.55
484.17
532.64
481.2
480.44
526.14
458.28
518.22
526.73
543.83
487.48
455.44
452.92
517.68
467.92
485.49
503.99
455.87
459.16
425.97
478.41
425.27
411.88
408.6
414.01
372.79
377.42
357.51
384.31
354.03
401.68
341.15
312.91
332.15
313.16
360.32
277.49
258.38
283.1
230.86
240.06
238.11
273.49
257.58
243.29
155.7
214.32
117.77
124.15
169.84
79.98
143.62
101.69
68.66
82.78
40.5
71.54
65.77
38.62
-2.15
-63.23
-82.59
-21.82
-48.63
-63.74
-95.57
-74.42
-130.96
-172.79
-142.09
-167.39
-167.63
-239.8
-204.05
-254.93
-230.52
-303.6
-270.91
-294
-270.1
-320.45
-299.64
-302.12
-376.44
-364.05
-366.62
-390.44
-383.69
-416.75
-370.79
-439.74
-449.22
-465.46
-450.96
-468.55
-475.5
-470.85
-461.75
-445.48
-502.49
-499.95
-518.29
-494.75
-506.29
-459.29
-488.06
-451.01
-457.97
-509.07
-539.06
-480.94
-459.86
-494.44
-457.06
-508.38
-472.39
-532.29
-501.57
-483.55
-480.28
-481.97
1055.85
-473.61
-432.17
-475.9
-480.72
-405
-436.85
-435.36
-390.34
-404.86
-406.25
-378.35
-380.99
-411.48
-371.08
-343.01
-310.52
-346.04
-275.63
-278.69
-301.81
-307.17
-256.14
-219.05
-233.29
-198.9
-196.19
-168.64
-157.22
-192.61
-187.79
-130
-170.98
-85.61
-98.77
-78.67
-104.25
-77.53
-86.81
-50.03
11.96
30.61
46.22
54.14
42.73
29.3
108.83
38.2
91.68
107
157.52
187.62
116.36
198.39
173.09
164.69
209.63
183.78
241.87
209.47
285.32
324.8
247.81
335.78
313.64
323.08
361.3
342.55
333.73
417.33
343.88
362.03
394.1
436.28
453.15
450.85
417.33
468.11
404.51
428.86
433
444.94
517.09
439.43
525.52
498.65
486.51
487.69
511.49
454.09
526.69
483.47
494.61
501.44
546.6
479.65
507.77
513
462.13
514.48
495.88
440.19
515.83
436.07
504.62
420.26
438.41
504.71
453.92
453.46
462.27
430.67
422.27
452.81
429.13
426.16
401.99
379.18
349.85
342.28
391.66
298.25
360.95
312.33
261.36
264.12
315.23
268.22
275.02
231.76
259.28
215.92
220.92
187.16
133.94
193.64
172.09
123.19
109.56
51.83
88.69
25.62
13.34
52.33
37.25
57.27
-17.3
-33.31
-7.35
-95.05
-69.51
-79.05
-132.17
-137.76
-174.27
-187.52
-130.2
-179.37
-192.96
-209.78
-193.02
-208.46
-240.02
-258.42
-244.85
-236.43
-321.6
1173.53
-268.35
-278.12
-312.73
-379.67
-371.98
-323.99
-336.69
-373.49
-435.35
-361.46
-440.58
-417.77
-443.23
-400.35
-439.89
-487.24
-461.15
-485.95
-493.98
-467.98
-484.1
-480.21
-448.55
-487.19
-519.03
-453.5
-448.35
-486.53
-545.69
-504.8
-535.82
-514.14
-484.54
-483.27
-464.17
-457.79
-451.17
-447.36
-489.1
-487.77
-511.6
-513.8
-432.8
-484.81
-430.96
-451.35
-480.75
-394.02
-385.19
-463.46
-375.51
-391.59
-358.92
-332.34
-416.24
-324.57
-375.01
-385.93
-316.94
-362.81
-279.75
-242
-251.34
-286.18
-303.38
-219.41
-247.78
-185.61
-164.1
-141.7
-123.08
-118.9
-152.94
-138.06
-150.89
-128.04
-53.03
-49.22
-70.2
-38.74
-33.1
-50.6
-18.04
18.79
39.32
78.97
47.67
68.22
127.15
115.13
113.64
110.76
154.71
138.04
154.5
227.7
227.75
193.52
261.33
258.16
255.55
284.17
282.14
347.43
303.35
309.17
291.46
376.09
320.2
404.52
363
412.27
385.78
367.58
434.4
462.63
463.8
401.59
396.36
449.33
443.6
465.46
513.92
434.76
445.37
510.51
507.96
465.07
442.55
508.22
535.1
544.55
495.94
491.42
533.55
466.95
512.45
509.96
464.5
523.65
474.43
485.94
491.42
478.96
524.82
430.7
455.24
435.64
409.23
415.62
393.32
457.85
472.55
369.43
404.77
446.9
354.25
354.99
368.71
347.37
338.86
299.77
364.32
285.15
287.44
269.42
257.11
304.96
242.56
237.86
250.42
174.52
166.4
233.41
151.32
191.09
157.08
133.58
109.14
127.49
56.9
104.15
106.87
29.15
11.63
-7.53
-36.46
-66.48
-48.1
-72.9
-53.82
-75.7
-50.53
-60.47
-90.06
-112.28
-113.32
-146.24
-202.48
-229.38
-206.7
-205.68
-238.24
-252.17
-288.65
-285.6
-300.59
-298.94
-358.35
-314.18
-313.8
-332.11
-358.02
-324.65
-325.54
-388.35
-440.72
-391.3
-390.98
-457.84
-411.66
-437.76
-478.42
-463.55
-444.1
-457.58
-509.58
-513.17
-472.44
-519.85
-532.11
-464.32
-445.78
-529.06
-489.05
-488.52
-532.95
-488.09
-499.27
-455.27
-452.49
-519.24
-478.58
-540.03
-492.78
-462.62
-489.15
-466.15
-496.37
-432.19
-420.68
-448.69
-475.64
-494.67
-438.19
-422.56
-417.21
-427.08
-450.03
-410.92
-437.56
-390.79
-394.83
-315.84
-313.12
-319.37
-338.54
-313.21
-278.52
-299.12
-289.64
-261.65
-305.3
-288.64
-254.44
-184.44
-240.77
-152.11
-181.29
-170.75
-173.5
-106.85
-152.05
-116.45
-72.33
-62.9
-78.12
-64
-18.91
12.03
17.91
-29.27
-15.59
32.02
12.61
40.8
63.4
75.45
111.3
133.56
195.44
140.34
204.06
180.18
220.31
252.99
218.31
225
242.17
237.1
294.71
312.61
297.56
362.07
318.48
315.96
368.26
359.75
325.27
406.66
409.25
443.27
414.06
462.13
461.31
387.55
408.88
479.37
488.54
459.09
487.15
499.55
1960.04
458.05
499.61
487.11
446.46
471.21
508.38
496.54
522.24
474.68
475.47
535.37
486.22
459.38
480.12
515.22
452.11
511.9
480.23
452.65
483.32
480.47
468.19
434.75
482.36
485.13
424.73
452.24
453
461.4
392.05
375.53
420.47
348.7
362.94
386.64
377.18
322.96
309.18
311.57
283.01
317.2
314.19
287.87
284.65
261.75
261.98
251.56
194.78
211.25
198.17
215.17
190.6
158.71
163.41
140.84
59.42
97.78
96.34
76.47
62.55
28.95
-19.98
0.25
-28.68
-54.4
-12.82
-110.6
-54.13
-70.01
-158.92
-129.09
-155.8
-114.51
-189.63
-174.65
-186.64
-253.93
-244.32
-234
-224.73
-314.31
-330.98
-275.63
-344.36
-348.76
-362.92
-314.97
-396
-323.27
-413.11
-371.5
-440.54
-422.94
-409.58
-428.09
-441.36
-478.31
-482.62
-405.11
-464.55
-442.66
-510.18
-428.44
-520.92
-486.75
-528.23
-488.06
-526.48
-448.2
-541.69
-452.31
-544.41
-489.78
-451.78
-453.36
-531.38
-461.78
-455.94
-450.06
-449.31
-484.2
-467.24
-486.15
-511.61
-434.53
-446.44
-425.89
-410.89
-441.85
-422.6
-465.02
-417.07
-384.07
-448.45
-411.02
-428.59
-432.22
-393.48
-349.12
-400.47
-384.91
-310.38
-310.57
-332.62
-305.49
-269.31
-270.72
-267.47
-207.17
-216.33
-269.59
-258.35
-237.46
-198.31
-182.16
-114.06
-91.57
-127.06
-152.19
-99.81
-45.62
-109.36
-68.02
-30.75
18.96
-51.84
1492.84
-12.72
5.66
7.08
71.63
107.94
66.17
143.24
100.22
138.54
172.01
205.97
201.68
158.05
166.33
203.34
212.48
235.01
295.07
242.34
295.21
319
329.26
334.77
354.52
317.66
338.89
341.96
362.66
428.1
415.78
366.64
434.72
413.7
422.96
404.67
468.22
475.77
444.55
438.37
505.97
478.03
471.07
443.93
453.61
472.58
530.6
532.25
492.64
496.08
485.29
519.91
486.25
484.46
499.37
465.45
517.07
515
486.58
521.59
508.24
491.57
501.37
437.1
425.41
411.53
411.97
476.44
429.6
383.07
434.67
366.76
367.43
362.57
340.15
400.08
339.64
312.65
378.9
386.35
331.99
304.48
338.87
277.95
273.79
230.62
267.95
259.53
177.32
199.99
225.63
162.75
179.03
204.64
112.07
140.75
114.83
91.63
129.46
30.64
36.37
20.42
25.26
-16.45
-42.94
19.34
-49.51
-52.7
-37.97
-92.79
-141.85
-149.22
-82.98
-111.05
-178.92
-189.28
-226.63
-231.64
-193.2
-264.95
-215.94
-223.34
-281.23
-259.57
-285.36
-342.21
-273.71
-307.97
-352.92
-326.47
-380.11
-337.82
-382.24
-404.07
-357.88
-423.99
-441.65
-392.19
-443.64
-394.01
-460.22
-411.59
-427.04
-494.52
-448.9
-471.17
-491.75
-498.27
-489.24
-525.22
-532.19
-484.8
-449.6
-483.21
-505.28
-548.33
-474.42
-490.14
-513.51
-472.02
-539.82
-538.66
-494.59
-480.33
-496.32
-475.94
-491.38
-451.74
-509.43
-429.32
-456.92
-437.68
-475.5
-425.13
-468.86
-449.26
-443.33
-408.85
-410.48
-385.41
-390.75
-386.06
-338.07
-353.58
-349.53
-307.71
-351.18
-271.44
-269.51
-234.36
-243.95
-240
-187.76
-254.4
-184.74
-174.99
-149.18
-185.77
-192.8
-172.65
-110.98
-83.42
-40.84
-86.88
-90.7
-70.4
-44.91
-49.4
-28.3
18.73
46.07
77.72
24.55
76.52
97.1
61.62
147.65
154.66
168.12
163.02
189.77
159.78
222.41
187.5
259.01
204.69
238.52
241.56
269.38
293.91
342.82
333.06
287.17
318.16
385.26
389.39
412.44
403.94
425.73
434.38
438.62
451.13
429.9
442.93
483.39
496.13
450.03
446.26
504.28
443.27
462.6
451.96
461.23
531.56
459.97
447.78
500.79
543.06
547.96
467.14
503.84
498.63
548.47
480.47
466.07
537.3
462.75
470.28
437.52
446.39
511.72
429.98
450.47
426.94
480.3
458.37
462.21
470.01
424.25
379.85
455.49
440.62
348.48
389.12
350.64
389.2
334.39
357.39
307.36
276.65
310.81
339.93
314.58
234.09
287.3
282.56
216.4
179.12
186.04
233.97
218.88
180.17
122.62
108.72
125.7
100.24
101.01
85.77
23.61
48.48
2.67
45.04
-11.86
24.8
-42.21
-86.56
-101.24
-45.2
-93.24
-65.11
-165.92
-107.4
-169.16
-197.92
-167.82
-204.5
-245.97
-236.91
-270.32
-199.84
-262.82
-290.19
-328.09
1250.87
-328.91
-271.96
-319.89
-366.16
-387.64
-407.53
-394.15
-431.25
-428.3
-397.44
-376.56
-452.97
-463.96
-386.67
-487.03
-437.12
-493.35
-422.5
-427.38
-474.71
-478.94
-476.71
-441.6
-517.8
-519.73
-486.42
-493.76
-503.93
-545.07
-476.81
-467.14
-465.77
-479.54
-525.65
-462.6
-493.17
-531.36
-484.06
-455.33
-469.56
-433.04
-479.7
-470.76
-507.25
-500.64
-498.53
-475.56
-444.83
-393.77
-384.83
-377.64
-435.36
-380.03
-374.59
-417.42
-389.99
-349.11
-377.86
-359.89
-362.61
-331.82
-276.7
-273.49
-261.6
-296.34
-245.45
-216.67
-262.56
-215.31
-232.36
-210.71
-190.12
-183.57
-152.07
-73.9
-61.87
-121.3
-92.76
-19.85
-7.51
-1.81
-11.66
8.12
-22.45
33.16
92.59
19.31
64.73
42.94
120.85
135.91
90.45
173.37
168.86
197.05
236.19
237.19
181.71
201.84
223.85
227.52
248.45
288.67
268.78
287.48
357.62
339.42
332.67
332.76
391.57
354.39
342.33
350.39
401.88
394.68
453.83
407.73
484.21
482.54
414.28
474.69
438.23
471.39
515.74
460.71
464.1
457.54
464.91
460.1
489.85
455.04
484.5
541.74
460.73
482.3
505.9
523.29
518.35
478.41
505.06
457.34
499.73
444.3
494.72
510.03
491.9
452.67
475.72
503.86
427.86
440.87
478.08
400.35
397.36
365.16
380.87
413.7
380.96
396.99
384.02
362.23
303.7
318.33
354.39
348.91
257.75
1826.92
310.24
253.56
198.48
260.51
253.09
246.4
164.7
175.77
192.08
123.64
110.88
136.1
58.05
67.89
33.88
16.62
9.99
62.05
-9.05
-0.64
-14.09
-25.95
3.82
-44.11
-65.03
-106.35
-118.03
-159.47
-86.4
-178.91
-193.68
-192.83
-210.18
-226.37
-260.95
-245.95
-278.01
-296.68
-298.76
-316.14
-315.76
-268.83
-282.63
-335.79
-309.33
-326.53
-347.62
-349.52
-409.73
-432.33
-354.84
-428.25
-403.02
-398.56
-432.78
-445.93
-432.85
-442.2
-502.29
-500.87
-427.64
-462.46
-478.93
-482.41
-499.28
-441.69
-528.02
-514.74
-514.53
-452.83
-502.23
-504.41
-546.06
-534.42
-541.42
-517.9
-518.64
-510.85
-461.55
-532.98
-518.5
-477.58
-513.6
-470.03
-491.45
-416.03
-455.76
-441.89
-431.58
-387.37
-452.87
-443.42
-428.5
-416.78
-368.67
-335.5
-339.12
-365.04
-368.65
-363.3
-346.33
-300.27
-315.55
-289.46
-260.28
-297.19
-231.16
-223.72
-196.81
-203.66
-146
-185.97
-187.97
-105.66
-101.07
-124.22
-156.52
-91.17
-59.31
-36
-89.25
-14.62
-66.21
41.01
10.63
8.12
62.86
69.92
76.54
73.77
61.51
116.09
83.8
139.53
141.32
167.32
157.79
162.34
230.67
277.2
197.1
261.02
245.85
309.31
326.86
331.81
301.11
305.52
317.22
336.3
349.91
322.36
414.32
345.41
447.01
395.71
450.41
411.82
425.15
488
455.54
413.6
439.7
425.76
466.5
469.59
474.82
495.3
446.94
532.98
505.95
478.24
534.6
492.61
465.81
515.32
491.27
542.4
545.94
516.52
497.07
454.91
467.56
532.04
504.9
510.66
446.79
495.73
503.46
445.64
475.41
398.09
453.61
476.33
456.85
418.08
447.49
374.79
351.27
393.48
406.63
309.65
325.02
317.49
296.43
328.63
255.41
246.59
312.5
228.7
217.32
243.48
224.81
185.53
198.22
139.07
130.12
117.99
96.11
110.25
92.97
130
76.68
81.15
43.81
-2.54
-25.81
53.86
-7.51
24.66
-62.2
-96.58
-21.55
-114.36
-98.89
-109.95
-161.86
-187.76
-130.61
-184.87
-222.06
-219.98
-163.35
-259.24
-241.85
-280.57
-234.9
-267.5
-329.99
-337.09
-283.8
-367.41
-353.35
-320.56
-333.06
-363.35
-336.7
-396.69
-380.37
-435.21
-385.79
-465.58
-463.32
-488.59
-398.87
-486.41
-424.33
-491.99
-488.5
-473
-471.26
-484.22
-530.52
-502.58
-512.42
-493.88
-454.22
-473.34
-526.74
-463.9
-536.28
-455.83
-461.92
-459.5
-484.83
-476.94
-513.79
-441.77
-490.18
-491.04
-510.31
-469.33
-470.92
-474.54
-491.43
-419.81
-430.85
-478.74
-383.85
-412.24
-442.38
-401.1
-398.96
-338.2
-323.25
-341.93
-322.92
-315.88
-307.69
-329.95
-277.36
-340.9
-320.19
-249.51
-299.78
-221.55
-258.95
-229.52
-229.8
-155.13
-153.19
-203.69
-175.34
-83.85
-163.25
-59.9
-77.69
-87.61
-101.19
-83.07
-62.83
-19.29
1540.94
10.07
-8.77
60.52
29.32
101.98
131.48
123.83
174.25
138.53
180.16
209.39
165.07
195.37
218.47
223.57
204.54
234.7
242.03
250.45
314.57
324.76
339.75
304.49
352.44
374.21
396.93
329.53
354.73
364.48
377.36
412.63
374.17
426.06
427.08
397.19
487.92
494.79
438.94
415.43
426.61
516.66
487.38
458.25
486.78
477.62
531.23
447.24
523.34
524.43
513.93
468.35
452.5
533.64
534.12
450.58
454.86
475.76
497.63
447.34
533.23
469.99
517.49
519.19
469.71
428.95
447.86
444.96
453.9
422.02
413.92
450.3
459.23
376.68
346.01
381.16
347.52
410.41
334.16
370.64
319.53
327.51
341.4
305.33
308.29
224.32
261.69
194.42
230.32
234.74
228.75
214.23
174.35
136.45
153.02
160.96
143.96
78.36
94.04
79.69
34.96
78.08
76.7
-34.93
-22.87
23.03
15.49
-16.19
-45.83
-59.78
-99.19
-100.5
-146.74
-147.24
-147.88
-156.12
-189.51
-191.97
-165.33
-221.75
-202.38
-254.49
-214.55
-305.09
-320.82
-316.59
-291.74
-357.24
-324
-316.78
-386.91
-323.73
-366.84
-429.24
-424.81
-362.98
-396.56
-412.01
-394.69
-475.88
-423.25
-414.15
-421.04
-508.64
-469.78
-475.72
-512.59
-466.65
-466.3
-521.06
-510.66
-458.17
-500.69
-450.68
-456.02
-472.58
-464.24
-521.17
-526.37
-497.4
-463.09
-520.96
-468.55
-498.1
-493.32
-481.28
-444.25
991.86
-440.34
-508.31
-453.21
-436.08
-457.2
-445.28
-390.11
-431.97
-387.29
-399.44
-348.54
-415.22
-382.61
-404.86
-388.13
-360.29
-351.84
-329.68
-289.88
-286
-234.5
-239.37
-233.83
-263.67
-238.09
-226.41
-158.98
-161.17
-170.86
-177.66
-146.01
-167.74
-147.77
-61.95
-41.26
-95.92
-88.9
-26.61
-44.78
20.54
-35.21
-26.61
4.42
35.87
27.73
60.31
41.05
127.34
93.76
164.48
171.76
193.09
207.69
184.32
208.97
263.87
197.09
291.23
235.66
292.56
300.78
322.1
336.82
284.67
353.52
326.98
318.74
398.85
377.01
424.94
362.91
425.28
382
424.94
457.32
412.59
414.17
495.77
449.01
500.41
486.12
450.9
428.98
454.34
534.85
510.08
539.83
483.94
467.61
519.41
517.02
513.57
527.82
451.09
463.54
520.25
511.69
467.93
464.64
494.63
509.2
515.95
486.71
481.64
480.08
427.05
466.09
499.52
399.99
443.05
425.67
441.62
443.31
415.86
350.22
356.05
394.6
356.37
317.17
308.08
327.33
271.9
296.69
337.12
332.07
251.03
224.61
209.37
274.75
211.88
249.42
231.87
217
214.05
194.57
109.43
78.65
108.49
104.06
46.09
53.26
25.2
70.1
-25.1
-4.22
-59.13
20.8
-4.7
-102.86
-89.41
-125.87
-128.68
-87.84
-159.44
-118.76
-172.83
-178.72
-173.35
-190.07
-191.04
-180.42
-202.39
-266.7
-234.45
-246.35
-343.54
-256.53
-352.56
-360.25
-327.33
-352.71
-339.7
-382.66
-384.65
-426.58
-369.04
-394.74
-370.41
-416.04
-392.54
-456.58
-453.17
-420.61
-411.4
-420.82
-453.8
-439.1
-464.28
-502.21
-443.36
-492.3
-485.6
-488.12
-464.95
-543.55
-515.94
-494.61
-459.46
-468.11
-458.05
-520.83
-446.67
-454.88
-526.7
-436.67
-481.93
-504.95
-501.32
-428.72
-457.76
-443.61
-423.39
-425.07
-429.49
-410.11
-456.04
-428.87
-444.65
-388.04
-403.54
-420.24
-351.58
-313.04
-296.52
-375.46
-341.79
-301.72
-312.68
-287.99
-260.82
-240.08
-214.52
-194.96
-206.84
-191.71
-151.45
-161.37
-142.88
-189.12
-113.69
-82.55
-109.33
-134.77
-35.58
-35.13
-85.68
-3.74
-5.85
28.66
43.66
9.47
71.84
51.2
88.49
72.84
137.74
160.86
148.37
95.3
190.26
152.55
184.56
230.33
249.2
228.81
289.87
250.82
242.63
298.01
263
320.03
321.46
354.54
353.79
307.81
362.22
328.85
384.04
410.39
410.09
427.35
372.39
415.76
454.87
485.67
491.61
447.71
469.42
506.05
511.11
428.59
455.91
453.6
525.06
487.39
443.45
483.1
491.75
463.09
464.6
496.32
492.53
524.61
547.39
513.89
518.11
493.22
500.36
521.84
437.55
485.81
467.83
472.25
470.85
496.78
476.61
414.75
407.05
381.39
454.97
445.96
409.28
410.1
432.75
406.48
352.05
386.41
308.54
304.98
303.7
283.09
277.39
1799.67
326.41
244.27
256.96
232.22
236.14
191.44
199.2
229.97
185.9
154.19
91.78
123.67
104.62
81.88
129.2
54.56
94.68
-5.66
67.51
32.75
-13.58
-41.07
-44.09
-86.42
-24.13
-80.76
-74.17
-142.61
-171.03
-135.97
-164.27
-138.52
-208.16
-205.36
-192.86
-195.63
-278.57
-283.03
-225.33
-235.42
-253.11
-318.33
-352.93
-347.9
-336.43
-339.43
-405.39
-355.22
-406.3
-432.53
-421.19
-392.48
-461.83
-376.92
-384.23
-461.73
-429.38
-492.47
-458.39
-414.78
-495.47
-476.58
-449.46
-527.82
-449.27
-485.87
-492.35
-545.04
-527.17
-495.89
-510.27
-460.8
-519.52
-486.57
-514.53
-455.76
-540.69
-444.25
-525.52
-473.91
-473.37
-469.39
-520.34
-462.53
-442.24
-500.5
-431.93
-491.39
-447.56
-462.85
-425.68
-458.29
-436.08
-373.57
-419.26
-362.64
-366.99
-338.24
-317.15
-342.7
-321.52
-356.96
-349.07
-325.9
-253.03
-225.63
-256.33
-221.12
-200.81
-198.46
-224.51
-231.9
-212.27
-169.81
-105.59
-104.31
-159.26
-110.3
-105.6
-110.27
-80.52
-14.33
-22.78
-26.25
32.38
37.89
-12.12
93.33
18.37
41.37
139.48
139.11
94.65
161.75
139.97
195.32
164.59
152.19
251.6
232.77
206.68
241.15
253.76
236.01
316.39
349.64
333.77
342.96
382.26
383.84
337
324.4
357.67
393.03
358.21
379.92
380.86
468.68
474.26
394.54
457.21
489.56
450.73
443.02
476.3
443.79
1977.16
459.64
450.77
513.14
451.18
523.36
544.13
477.58
549.03
500.56
527.51
481.94
462.09
461.72
472.36
448.37
493.2
463.45
532.84
520.59
504.63
504.34
486.3
413.43
469.44
438.84
394.49
463.34
467.38
390.52
435.58
375.45
406.85
361.99
351.6
391.09
344.52
325.26
332.5
316.44
306.4
337.31
308.48
231.85
304.42
207.36
197.25
176.18
154.21
157.44
221.93
204.33
149.32
178.17
131.87
53.97
87.92
78.42
76.05
8.66
37.81
-18.26
8.56
-64.1
-30.52
-93.9
-52.5
-70.05
-125.32
-127.12
-78.5
-146.8
-194.26
-130.4
-140.02
-222
-249.62
-203.4
-207.86
-266.9
-280.02
-267.06
-273.67
-335.18
-322.53
-357.5
-326.3
-307.72
-330.99
-401.99
-411.04
-373.33
-418.11
-382.14
-456.35
-376.64
-475.33
-474.31
-446.73
-487.48
-468.82
-509.01
-477.86
-499.31
-481.53
-438.15
-515.19
-450.99
-519.05
-510.18
-521.1
-536.9
-530.23
-478.01
-549.71
-499.05
-530.21
-506.25
-508.33
-448.28
-488.59
-487.61
-496.61
-451
-444.8
-465.19
-497.16
-463.11
-410.67
-450.29
-412.15
-402.27
-470.05
-422.58
-418.23
-423.26
-385.3
-361.78
-390.68
-400.58
-396.64
-369.45
-313.89
-339.09
-294.53
-336.6
-290.62
-256.72
-300.47
-272.34
-232.46
-169.15
-233.26
-212.53
-139.38
-199.62
-194.75
-128.76
-162.39
-69.04
-44.91
-104.25
-72.83
-23.91
-5.23
-11.93
1543.96
9.41
49.28
59.43
20.44
48.03
121.11
105.86
105.79
145.24
168.85
209.55
188.19
213.56
216.7
263.5
245.46
225.96
281.02
293.92
291.73
262.89
285.55
356.19
372.58
334.74
324.22
379.38
332.62
370.93
399.71
390.52
382.01
377.63
435.12
416.51
487.8
494.73
470.62
505.84
473.33
513.32
488.64
506.28
439.46
531.1
456.64
499.96
529.28
496.52
498.64
548.44
453.55
535.75
526.93
515.18
532.15
472.31
532.57
509.37
477.35
506.96
505.13
444.52
461.2
484.56
447.23
446.24
413.71
451.41
474.78
421.53
406.47
419.61
367.16
425.11
388.13
402.12
340.89
352.72
314.18
289.47
289.8
315.11
253.86
260.63
210.9
230.53
271.4
212.84
237.66
173.09
186.66
158.09
161.78
166.61
86.1
148.75
126.16
53.2
98.32
91.12
81.32
-25.12
-10.63
-21.19
-19.97
-85.53
-64.04
-96.89
-93.99
-65.1
-84.6
-157.06
-119.51
-119.21
-145.69
-140.73
-221.03
-259.6
-181.66
-195.85
-293.22
-265.28
-246.32
-328.98
-299.66
-359.73
-285.51
-357
-355.97
-344.86
-418.58
-357.69
-363.83
-444.16
-435.53
-461.05
-423.85
-444.42
-393.55
-453.31
-489.03
-416.1
-434.38
-509.14
-438.47
-440.65
-530.23
-496.49
-536.61
-522.3
-467.13
-524.46
-483.27
-472.29
-489.91
-521.61
-500.87
-494.63
-503.41
-519.33
-444.27
-504.98
-445.6
-494.83
-486.11
1071.62
-474.98
-450.72
-498.26
-438.81
-400.86
-392.27
-403.77
-453.19
-433.29
-384.38
-365.98
-419.78
-400.87
-400.91
-358.35
-359.25
-294.67
-275.72
-348.76
-326.15
-273.12
-250.34
-261.68
-287.43
-242.44
-221.99
-185.74
-150.62
-223.76
-166.01
-153.32
-119.78
-92.51
-79.15
-52.69
-35.88
-114.79
-37.52
-20.81
-64.17
7.32
51.8
49.8
22.7
62.98
31.53
128.68
94.87
75.48
103.58
180.2
151.33
169.76
236.19
194.64
233.06
272.44
274.65
205.27
244.48
234.95
259.22
344.89
290.14
303.17
382.46
392.54
406.79
370.55
358.2
355.44
428.27
377.87
383.02
393.06
442.04
410.95
417.41
470.98
412.13
418.44
435.48
441.17
468.62
474.77
481.31
487.34
471.35
530.09
506.42
517.09
520.92
477.71
542.87
474.36
525.71
457.36
478.79
494
454.76
526.99
470.54
497.36
438.82
453.37
421.81
437.9
478.08
451.84
460.94
427.33
471.4
434.63
410.42
364.09
394.23
364.15
399.77
308.42
356
325.06
364.15
296.79
328.72
314.56
262.43
247.31
243.83
256.53
180.77
172.73
208.13
184.28
163.79
106.36
132.63
86.56
128.72
142.75
128.53
26.1
34.65
-6.92
-24.46
0.63
-23
-15.11
-51.45
-63.94
-76.7
-71.31
-50.99
-104.86
-169.5
-148.91
-203.96
-164.54
-216.67
-233
-175.79
-183.94
-190.09
-266.4
-266.55
-290.17
-329.39
1155.31
-356.6
-287.74
-290.27
-301.92
-391.22
-404.76
-358
-404.66
-359.8
-449.94
-391.88
-392.42
-387.49
-398.33
-440.07
-421.7
-424.26
-415.96
-517.34
-453.11
-520.44
-478.15
-523.8
-447.81
-467.89
-448.49
-474.55
-504.98
-507.43
-484.01
-534.81
-495.25
-539.43
-473.81
-528.64
-520.42
-532.89
-460.7
-515.4
-484.72
-429.21
-427.56
-445.25
-424.53
-428.69
-493.49
-390.46
-443.72
-381.35
-397.04
-437.19
-358.99
-419.11
-332.95
-377.29
-366.32
-324.27
-302.61
-288.41
-335.02
-262.34
-305.43
-233.68
-237.42
-258.44
-230.61
-183.12
-215.24
-166.94
-178.11
-179.67
-159.53
-182.61
-105.38
-114.14
-127.39
-49.9
-103.77
-89.82
-68.63
-2.05
17.41
14.8
60.48
83.37
54.57
76.32
94.85
49.24
112.54
133.69
134.81
130.29
162.46
194.51
164.6
218.76
181.85
210.51
297.63
236.01
273.22
262.12
270.6
264.68
301.74
373.79
350.33
396.33
319.58
420.69
394.66
443.71
430.53
431.57
442.03
466
407.19
480.7
463.98
475.13
467.98
442.8
479.06
485.97
448.46
491.27
538.49
495.87
487.2
546.51
546.75
501.52
480.89
511.94
504.81
466.78
492.96
460.09
459.9
523.45
465.41
445.71
529.8
485.94
491.78
479.6
476.1
422.63
410.87
424.71
458.49
409.47
451.96
415.89
351.95
411.28
348.52
362.93
321.52
325.83
389.38
304.93
341
318.98
1787.18
307.32
271.97
301.74
282.47
236.04
171.03
234.1
206.28
151.46
197.44
129.66
170.59
106.15
58.52
40.37
116.02
24.79
71.27
2.58
28.18
-35.33
-30.44
-45.31
-35.82
-19.39
-109.39
-119.06
-59.74
-126.71
-129.21
-169.36
-204.09
-165.35
-145.75
-223.52
-252.31
-257.81
-264.22
-304.03
-245.26
-274.65
-298.18
-329.76
-296.66
-382.55
-334.78
-389.47
-376.01
-379.63
-421.96
-426.45
-444.2
-455.93
-376.15
-433.6
-396.52
-431.14
-420.15
-459.65
-413.43
-490.23
-516.66
-463.31
-502.7
-441.97
-490.92
-487.94
-487.65
-537.43
-489.83
-465.77
-450.35
-451.99
-530.39
-477.51
-470.92
-526.01
-486.91
-486.63
-438.73
-479.96
-478.79
-441.04
-458.49
-436.94
-479.14
-465.76
-464.46
-438.18
-429.88
-417.58
-458.58
-437.69
-417.07
-423.83
-336.13
-332.49
-373.06
-344.59
-387.52
-372.57
-365.56
-327.93
-337.07
-324.98
-266.39
-263.71
-268.29
-254.69
-207.19
-213.54
-159.64
-150.97
-147.79
-101.43
-116.73
-150.12
-117.36
-131.28
-57.14
-10.37
-87.89
-48.13
-23.06
35.86
16.94
18.9
90.49
11.24
43.93
53.17
143.83
114.42
171.92
128.67
151.78
171.69
219.03
204.88
192.3
236.18
224.5
213.65
320.34
254.6
288.13
279.12
328.37
341.55
379.93
356.15
367.08
402.94
400.7
399.56
447.77
446.44
463.19
421.28
393.67
473.7
467.98
498.15
415.58
478.41
451.04
1966.66
449.03
474.87
445.2
443.49
540.59
542.27
530.62
535.2
460.11
460.32
453.3
488.35
507.13
474.83
535.83
490
466.29
460.65
447.45
490.29
440.44
436.99
462.38
501.75
400.72
441.78
432.88
473.45
455.12
411.45
354.51
345.67
368.94
384.72
404.05
378.84
372.31
305.57
285.57
327.61
317.25
260.24
316.54
213.21
250.09
242.17
178.64
171.68
226.45
217.22
215.02
151.58
168.35
81.07
115.26
134.6
91.25
54.27
66.62
19.76
21.24
-8.85
3.91
-53.42
-2.49
-65.15
-37.43
-135.43
-94.7
-160.26
-123.51
-162.14
-159.12
-166.86
-161.6
-182.15
-254.04
-258.46
-264.34
-217.74
-317.47
-321.91
-300.84
-278.37
-302.96
-313.98
-299.09
-350.28
-401.95
-365.4
-371.3
-362.36
-398.97
-425.25
-395.55
-465.67
-410.19
-454.44
-405.11
-483.63
-499.35
-509.07
-517.47
-427.58
-468.4
-458.79
-494.42
-492.86
-533.01
-499.96
-503.65
-465.2
-479.53
-525.24
-545.34
-490.97
-505.86
-488.36
-504.49
-517.28
-498.13
-529.18
-469.75
-432.94
-476.22
-448.39
-500.65
-483.33
-422.37
-415.23
-424
-389.04
-414.2
-428.35
-437.56
-428.31
-356.84
-375.8
-376.3
-325.22
-325.81
-334.28
-300.04
-300.89
-313.55
-262.11
-260.2
-240.23
-227.38
-213.06
-220.46
-165.52
-184.23
-170.32
-145.38
-160.34
-108.8
-155.24
-62.4
-75.99
-41.08
-68.62
-56.75
-54.32
4.09
-45.94
1477.56
35.3
27.94
67.3
73.24
54.73
81.7
126.64
155.65
158.39
199.99
213.33
140.51
188.5
195.11
213.24
196.27
275.01
301.96
243.93
243.53
301.88
330.36
299.28
319
335.44
363.6
354.47
333.28
352.85
427.78
395.25
417.1
437.36
427.19
479.53
478.38
445.42
488.2
451.82
464.47
488.44
444.16
456.16
471.38
503.57
479.26
532.72
449.98
546.35
507.93
514.99
508.42
458.41
507.51
503.75
504.89
525.26
502.44
526.36
511.26
468.61
509.61
510.83
439.1
484.76
457.54
467.91
418.37
408.89
463.92
430.41
456.5
349.2
430.18
360.99
376.72
334
304.16
320.8
324.17
314.73
297.47
272.38
239.3
291.59
231.76
229.12
239.04
202.58
154.42
143.48
199.22
161.92
126.72
160.14
79.73
61.7
50.53
56.65
94.11
-2.77
60
30.96
10.2
-66.82
-48.56
-34.05
-76.89
-34.27
-116.01
-70.81
-132.35
-167.55
-159.45
-181.46
-173.69
-170.5
-253.75
-259.05
-264.31
-297.44
-291.1
-284.5
-293.16
-255.1
-325.05
-293.48
-332.16
-395.93
-393.69
-407.35
-425.83
-387.23
-445.24
-419.11
-370.52
-386.92
-434.76
-412.33
-443.21
-478.54
-410.75
-423.78
-421.39
-486.28
-472.12
-526.13
-496.64
-449.7
-468.08
-536.54
-505.14
-544.13
-488.27
-462.84
-499.74
-485.85
-534.78
-473.49
-514.68
-531.36
-457.92
-446.34
-474.62
-449.86
1001.63
-458.17
-426.83
-507.62
-436.8
-447.8
-398.58
-472.04
-444.81
-453.18
-394.34
-448.94
-426
-361.93
-402.86
-357.2
-391.77
-346.62
-351.69
-346.93
-283.3
-317.95
-327.31
-309.05
-204.28
-271.55
-276.41
-261.18
-190.82
-198.09
-124.73
-188.13
-180.41
-156.09
-101.22
-87.15
-128.15
-68.38
-13
-21.35
-58.47
-30.66
-16.86
38.69
-6.06
21.95
83.4
41.29
87.98
109.97
94.49
92.5
171.4
170.34
173.83
235.57
232.3
204.36
237.66
292.88
225.91
316.03
276.42
260.09
340.05
304.32
292.24
382.19
353.03
342.35
413.06
391.27
399.66
411.04
400.3
440.87
421.7
478.89
411.28
450.84
464.53
482.89
428.76
485.09
460.96
452.6
437.31
513.32
464.09
526.87
486.45
459.8
518.97
483.38
544.22
470.37
524.84
544.88
499.55
466.13
536.09
445.61
534.24
465.92
444.4
477.03
485.84
506.01
479.13
410.89
466.58
481.67
461.87
390.32
437.6
410.02
371.5
355.03
349.71
388.52
388.31
345.11
321.75
286.07
303.14
311.96
259.25
239.31
286.37
232.58
241.01
237.39
199.82
197
204.62
186.34
120.42
147.68
110.85
134.06
127.03
109.08
14.25
27.29
38.1
-13.81
42.62
2.8
-41.68
0.43
-71.76
-92.91
-110.28
-92.07
-164.41
-105.7
-105.22
-116.46
-196.94
-193.38
-173.16
-204.29
-205.24
-254.6
-256.8
-236.84
-236.94
1154.52
-289.5
-355.71
-355.04
-301.3
-358.13
-401.37
-402.39
-398.46
-375.86
-443.87
-432.88
-386.63
-393.06
-465.71
-450.36
-440.07
-429.99
-447.13
-459.89
-485.67
-492.79
-440.62
-481.17
-503.19
-474.4
-452.28
-504.21
-528.18
-526.1
-463.76
-496.83
-478.55
-466.26
-449.82
-541.55
-528.2
-457.22
-533.16
-529
-476.31
-470.95
-438.1
-481.44
-485.7
-479.9
-494.84
-420.46
-475.15
-469.79
-399.47
-394.69
-439.79
-373.32
-367.72
-405.67
-366.74
-381.7
-362.68
-301.85
-362.3
-267.55
-248.31
-264.92
-242.89
-260.1
-235.39
-279.57
-225.82
-222.35
-148.41
-155.88
-155.99
-105.17
-152.52
-73.02
-128.87
-48.77
-106.1
-12.19
-87.51
5.05
3.56
35.34
-22.14
-12.26
75.13
36.67
84.88
117.79
97.81
88.39
138.95
118.21
182.85
150.38
143.32
195.25
210.24
231.19
197.21
276.25
269.91
310.19
286.29
284
364.14
322.52
386.56
314.74
315.49
351.55
364.75
433.4
408.53
426.87
396.94
405.53
409.34
410.36
460.39
498.75
469.97
434.63
506.82
505.29
511.12
514.07
522.28
449.07
493.39
476.65
534.04
493.18
456.48
484.7
499.87
532.72
471.52
498.06
519.42
515.5
513.4
516
440.63
454.39
424.77
501.95
451.56
408.44
433.38
398.86
465.24
417.92
436.83
442.71
371.67
372.97
387.54
336.73
395.66
400.85
385.02
381.45
328.47
277.52
293.9
1780.08
319.78
241.15
284.73
245.03
246.72
216.11
198.31
145.59
132.59
167.64
174.3
81.69
81.8
87.08
121.39
78.36
84.36
-9.95
-25.52
-46.13
30.09
6.53
-44.15
-66.58
-33.53
-92.38
-139.85
-148.66
-132.95
-168.19
-161.79
-180.45
-217.32
-243.34
-188.18
-231.64
-212.19
-217.75
-239.62
-300.75
-336.36
-263.63
-315.66
-359.19
-323.88
-332.72
-354.29
-340.16
-344.92
-350.14
-378.97
-377.38
-424.12
-410.53
-474.6
-421.97
-437.89
-440.11
-448.47
-493.15
-520.03
-494.4
-500.51
-472.42
-475.85
-463.38
-513.36
-497.72
-500.96
-535.53
-527.83
-522.44
-482.69
-470.47
-504.84
-493.57
-521.06
-537.58
-527.71
-492.16
-498.15
-443.5
-435.37
-473.82
-496.46
-489.13
-424.52
-464.36
-438.35
-395.46
-468.83
-428.65
-405.44
-408.55
-388.61
-389.96
-357.55
-342.85
-354.91
-314.72
-359.63
-344.81
-313.68
-314.71
-319.05
-233.35
-201.1
-273.86
-243.54
-164
-184.87
-216.55
-214.87
-127.76
-136.43
-140.45
-62.3
-111.67
-37.14
-33.74
-35.73
-74.89
-33.3
-6.75
11.42
46.16
31.08
67.22
118.31
83.97
57.93
81.76
158.12
122.95
112.46
186.71
208.87
150.94
261.97
195.41
228.36
276.59
267.98
318.35
290.82
257.28
278.96
291.26
344.03
360.57
390.24
419.55
383.41
369.27
381.3
406.58
413.16
382.24
446.13
459.69
419.13
470.56
452.58
420.67
495.35
1973.36
472.4
512.95
496.75
538.16
457.81
459.41
485.2
526.69
524.79
527.73
520.07
471.6
484.59
526.59
478.76
496.25
508.22
504.26
442.97
510
446.22
427.33
418.38
414.16
445.5
409.55
482.84
454.77
427.43
377.29
418.78
367.44
426.22
354.08
402.93
317.5
315.59
296.03
289
305.69
284.11
279.67
295.46
299.56
278.62
275.77
254.63
202.13
162.89
182.33
209.54
146.34
109.98
172.67
140.96
59.03
79.87
111.23
52.56
17.25
62.76
45.16
22.49
-1.26
-72.1
-16.26
-41.78
-132.11
-112.13
-125.03
-166.67
-138.14
-166.64
-160.94
-215.93
-180.52
-259.74
-180.01
-274.87
-212.96
-226.18
-277.78
-258.66
-300.45
-341
-296.82
-307.62
-316.4
-386.83
-330.57
-426.08
-420.86
-419.51
-365.28
-390.04
-472.73
-459.95
-447.65
-467.31
-439.45
-458.79
-506.42
-507.46
-428.42
-503.75
-520.29
-524.58
-466.24
-534.7
-522.46
-471.72
-460.55
-504.3
-486.66
-538.89
-493.52
-453.14
-486.42
-533.48
-533.52
-450.34
-496.64
-527.33
-525.1
-439.56
-456.57
-443.23
-466.61
-415.55
-429.44
-391.85
-439.33
-422.45
-377.61
-385.1
-363.42
-410.25
-394.73
-368.68
-347.91
-313.85
-346.26
-281.27
-337.48
-340.35
-337.66
-246.03
-221.95
-227.87
-267.95
-203.65
-187.3
-239.88
-204.11
-137.57
-151.9
-120.49
-111.18
-163.96
-107.82
-69.93
-117.5
-55.95
-86.74
-41.6
-12.57
1456.01
10.96
65.48
43.25
35.7
87.43
133.35
126.55
91.59
111.5
170.07
217.24
200.08
230.01
256.49
173.17
274.85
213.36
309.56
262.9
282.52
324.86
276.64
344.51
383.75
327.57
306.85
390.94
399.83
391.67
420.84
450.57
386.47
407.88
412.31
466.96
419.84
466.35
445.32
413.93
473.71
436.24
467.14
484.11
528.23
505.95
513.19
456.28
453.94
451.71
512.02
544.47
543.51
449.77
523.59
540
493.09
507.81
443.95
494.65
496.49
451.18
441.24
490.09
446.69
461.53
494.22
435.46
446.49
402.08
395.63
371
373.83
384.92
410.42
400.45
331.37
321.19
394.07
331.03
374.41
337.18
270.33
339.16
298.61
273.17
220.77
207.4
205.48
188.67
233.97
236.59
202.19
138.26
116.77
115.94
71.43
53.51
113.8
81.98
67.28
89.28
-19.12
8.83
1.09
3.06
-67.76
-2.19
-92.03
-99.7
-88.13
-133.58
-156.85
-104.82
-187.01
-123.19
-199.29
-231.94
-206.57
-240.34
-261.37
-244.96
-307.25
-266.33
-312.64
-290.07
-288.96
-278.5
-344.19
-297.8
-318.48
-329.3
-419.49
-368.35
-431.96
-412.93
-406.57
-461.37
-416.26
-427.2
-490.81
-495.9
-499.15
-466
-456.69
-438.23
-469.28
-531.4
-517.66
-472.24
-489.06
-480.57
-524.87
-506.78
-453.56
-539.39
-471.99
-466.27
-449.07
-469.94
-448.47
-488.69
-484.49
-518.86
-458.9
-474.01
-443.3
1024.98
-424.33
-455.17
-430.27
-461.2
-491.93
-447.47
-474.43
-372.95
-378.62
-386.75
-441.44
-368.01
-357.21
-358.84
-347.01
-294.93
-359.04
-359.8
-326.01
-319.63
-289.45
-256.3
-298.79
-250.77
-190.52
-194.64
-194.98
-237.34
-199.96
-162.36
-108.78
-99.86
-120.29
-82.64
-52.26
-30.65
-35.64
-86.33
-58.34
-52.07
-44.04
-34.05
37.93
-3.95
96.24
40.7
82.1
124.9
169.24
102.77
113.28
114.41
219.19
231.74
205.53
200.86
248.31
206.29
209.11
238.54
316.02
272.97
324.74
286.26
284.22
338.83
400.34
325.94
386.35
381.85
366.85
382.04
383.44
449.34
385.76
451.97
428.05
457.64
436.34
463.63
514.37
521.78
501.1
437.35
519.55
531.56
499.95
504.62
477.95
455.2
489.01
526.37
490.26
518.05
475.63
453.46
523.83
457.45
453.07
510.36
477.56
487.44
495.17
484.28
489.87
443.84
503.45
466.35
422.78
450.67
424.29
392.65
447.79
363.62
422.84
423.52
342.91
351.22
341.56
300.27
304.13
367.01
281.74
286.24
293.81
231.49
235.17
206.57
254.5
235.75
251.05
188.38
144.16
209.68
174.42
177.08
141.42
117.51
123.57
30.7
93.06
23.63
46.23
0.65
-22.73
-22.52
-60.48
-36.85
-25.98
-26.18
-130.82
-82.21
-120.39
-147.87
-129.97
-146.78
-191.67
-207.28
-244.54
-257.43
-210.44
-205.76
-226.46
-277.77
-237.51
1255.16
-290.7
-340.38
-331.42
-305.09
-347.85
-334.15
-375.75
-419.22
-413.43
-377.89
-366.26
-433.81
-420.44
-392.73
-470.11
-478.67
-475.3
-421.64
-497.41
-483.25
-515.68
-488.43
-489.14
-521.11
-457.73
-540.65
-502.39
-499.23
-492.32
-519.06
-515.97
-453
-545.24
-470.12
-534.18
-517.58
-529.87
-475.69
-491.9
-446.03
-439.61
-447.84
-481.76
-419.77
-435.59
-406.33
-417.74
-444.58
-425.78
-391.47
-449.01
-415.07
-422.03
-406
-369.08
-348.65
-332.23
-343.5
-321.75
-297.87
-306.35
-315.32
-293.26
-281.32
-292.28
-237.96
-219.72
-198.61
-247.49
-190.43
-167.42
-157.14
-125.79
-163.17
-100.07
-137.21
-110.89
-31.86
-85.99
-44.52
-35.4
-68.21
-35.29
1.36
-14.79
63.39
84.59
100.81
56.28
85.05
152.09
81.1
100.43
207.83
210.55
159.42
217.72
168.52
202.51
288.72
250.75
273.94
301.15
325.86
316.47
354.23
352.15
304.86
382.38
382.27
402.32
346.76
377.73
372.8
448.64
414.25
424.72
469.96
394.26
421.57
410.8
445.82
513.49
443.5
485.93
525.24
528.9
512.44
448.84
458.04
526.79
539.45
471.74
489.35
517.23
482.87
449.84
522.63
537.65
453.93
536.94
538.47
475.38
528.7
459.13
483.55
517.46
418.9
484.78
486.31
416.71
440.76
437.29
456.11
415.44
448.88
395.3
395.93
337.12
386.2
336.3
374.47
334.65
356.19
346.58
261.25
1771.64
282.51
236.42
297.62
191.22
248.77
245.28
185.34
172.97
134.22
169.1
154.43
158.37
90.13
59.88
72.42
22.05
17.21
45.36
-24
28.74
7.01
-44.65
-35.39
-70.11
-21.88
-90.22
-105.82
-84.38
-107.18
-116.58
-112.41
-190.46
-196.2
-235.56
-193.13
-262.53
-238.76
-261.87
-267.18
-249.49
-252.52
-265.59
-321.18
-299.65
-293.47
-298.63
-358.21
-397.53
-359.22
-401.12
-418.27
-400.56
-448.24
-432.47
-413.86
-485.71
-463.82
-489.37
-438.73
-418.72
-436.87
-466.01
-431.93
-452.12
-442.23
-533.21
-468.74
-472.99
-497.35
-483.56
-472.27
-492.51
-495.26
-512.82
-515.58
-460.96
-466.79
-497.25
-522.07
-464.95
-462.24
-529.23
-524.46
-432.28
-493.98
-441.4
-474.76
-427.89
-472.85
-480.53
-387.45
-440.77
-396.83
-431.37
-398.8
-404.55
-332.28
-396.98
-373.34
-368.65
-372.4
-279.42
-265.36
-279.3
-301.01
-298.55
-251.5
-235.41
-231.14
-181.65
-245.89
-235.68
-131.45
-171.41
-140.6
-94.71
-88.05
-91.16
-114.13
-111.16
-104.99
-63.11
-55.72
20.65
5.5
32.59
11.89
97.58
64.43
93.8
82
124.92
147.62
179.13
132.71
138.19
183.03
213.2
169.22
221.24
258.61
223.2
281.11
244.06
330.56
298.14
283.47
352.93
286.06
375.48
394.68
387.4
408.13
364.98
373.68
436.28
450.22
409.93
406.45
427.77
425.95
450.12
505.23
476.72
435.84
444.72
1992.83
515.51
514.01
465.99
470.83
500.54
522.86
451.81
548.23
470.87
547.66
504.21
463.51
495.23
500.25
466.32
525.94
453.71
459.47
476.56
474.9
456.69
427.71
468.86
461.16
460.75
463.49
400
453.98
388.28
386.71
449.91
354.47
413.34
338.6
340.33
358.34
295.71
344.13
306.55
289.42
323.85
298.4
241.5
228.2
220.45
254.03
223.92
211.28
184.98
168.2
127.6
139.54
153.58
110.66
101.34
81.3
105.77
73.08
71.84
14.16
-15.9
-49.45
26.53
-49.55
-47.56
-83.49
-89.92
-71.88
-108.51
-121.63
-183.06
-200.32
-184.32
-183.75
-195.87
-211.92
-233.29
-191.41
-238.2
-213.73
-224.2
-299.64
-337.31
-299.38
-294.42
-380.48
-372.73
-374.37
-352.17
-345.74
-394.13
-368.14
-369.75
-367.58
-387.43
-443.79
-432.84
-488.11
-406.36
-506.19
-496.83
-508.38
-456.85
-507.4
-520.82
-440.05
-461.25
-540.94
-535.2
-478.17
-476.71
-523.57
-467.5
-460.18
-510.03
-496.11
-540.92
-520.71
-521.41
-512.91
-462.31
-487.31
-479.14
-427.85
-507.89
-446.04
-477.39
-474.52
-498.89
-441.99
-388.28
-472.47
-400.14
-370.07
-443.05
-407.46
-400.17
-393.21
-383.83
-363.18
-332.77
-312.27
-346.43
-265.82
-264.51
-322.1
-261.19
-243.29
-221.71
-196.73
-263.49
-193.27
-163.97
-172.23
-127.1
-132.92
-138.2
-99.34
-127.68
-62.85
-50.15
-29.51
-4.23
-29.39
-18.32
1458.02
39.5
40.73
74.22
24.33
31.81
110.2
140.66
75.28
140.12
111.72
165.95
155.39
214
209.11
227.95
245.66
292.78
213.26
290.6
287.52
280.37
349.77
288.24
301.44
366.56
320.12
346.61
368.48
412.55
364.75
418.94
407.59
442.3
452.41
390.75
483.66
436.78
494.39
420.87
488.35
439.69
428.56
503.03
535.17
452.74
514.62
529.57
517.46
476.43
482.98
479.83
496.02
508
540.06
492.48
486.76
502.72
448.09
485.88
479.61
456.65
514.98
458.63
427.51
416.34
409.69
422.21
434.89
485.65
445.07
422.47
363.11
397.59
441.09
406.45
418.64
396.34
402.62
366.64
380.75
368.82
295.79
324.44
303.34
280.21
215.58
217.75
266.22
199.61
166.34
155.03
145.67
178.9
105.32
92.91
101.27
69.59
44.34
74.25
100.81
-1.68
80.9
11.15
19.64
-1.24
1.47
-78.16
-71.12
-30.55
-135.95
-74.35
-80.34
-166.83
-163.8
-184.78
-149.2
-182.61
-241.24
-194.56
-258.04
-253.12
-263.52
-223.66
-321.33
-335.74
-342.04
-270.45
-300.96
-382.86
-359.99
-358.29
-325.18
-379.01
-432.21
-407.48
-438.46
-377.99
-393.85
-384.34
-459.63
-492
-462.38
-466.48
-442.14
-469.9
-473.36
-480.55
-475.24
-468.36
-531.1
-465.92
-468.82
-517.06
-482.48
-475.48
-510.41
-536.07
-462.59
-479.96
-481.22
-481.36
-538.82
-509.33
-439.27
-490.05
-446.73
1025.28
-432.04
-483.93
-453.84
-454.47
-466.7
-467.51
-439.2
-448.82
-408.47
-383.11
-346.3
-379.31
-353.45
-412.03
-343.44
-332.01
-303.92
-358.28
-298.85
-296.96
-314.35
-261.4
-220.23
-242.79
-257.49
-201.6
-195.96
-160.52
-171.59
-209.04
-187.65
-111.11
-118.01
-147.6
-124.55
-86.32
-20.27
-8.44
-53.88
-10.06
29.87
31.63
-22.66
88.11
76.35
85.21
103.24
71.03
147.98
154.03
126.41
172.4
212.91
194.25
239.87
222.4
214.54
236.59
269.98
277.92
266.04
338.71
337.36
268.83
323.98
387.29
392.28
319.37
398.44
403.51
384.23
369.49
440.05
431.03
420.97
439.51
475.9
460.27
421.3
509.36
448.75
494.4
486.07
479.25
444.19
459.29
502.59
492.95
476.34
469.33
475.09
527.38
492.01
471.19
538.38
498.53
529.46
453.4
479.81
516.12
499.33
453.83
504.96
524.57
449.01
492.25
435.67
487.65
474.82
476.58
481.01
435.4
394.52
448.37
352.17
403.37
412.08
395.71
375.08
363.9
312.51
343.57
322.26
286.1
251.34
248.08
297.26
217.18
217.34
228.46
235.67
178.58
197.93
140.95
139.78
150.67
106.55
157.78
54.52
84.46
50.07
23.06
83.57
36.7
4.3
-22.03
24.47
-40.07
-44.25
-116.6
-48.99
-126.91
-143.06
-104.68
-170.07
-128.84
-204.09
-190.21
-214.1
-225.36
-186.56
-252.84
-296.37
-229.53
-320.19
-262.79
1149.41
-345.57
-342.53
-314.98
-315.39
-400.98
-350.25
-361.56
-421.22
-407.37
-365.07
-449.84
-382.7
-428.21
-473.25
-424.12
-483.7
-447.4
-505.11
-499.98
-463.4
-524.09
-447.36
-506.18
-508.2
-508.91
-465.6
-492.78
-457.1
-480.85
-489.8
-479.43
-455.69
-496.84
-544.23
-508.42
-449.66
-510.61
-466.76
-461.54
-498.16
-495.08
-441.49
-512.42
-487.89
-426.08
-446.84
-438.65
-396.75
-469.45
-465.16
-359.03
-430.28
-429.22
-341.97
-331.31
-313.6
-375.3
-335.06
-372.49
-341.15
-299.04
-333.39
-307.2
-246.15
-279.06
-283.7
-181.17
-166.16
-189.53
-235.86
-165.94
-118.99
-112.06
-106.03
-114.07
-136.92
-114.03
-98.24
-18.16
-70.22
-62.43
-51.38
21.55
53.69
-5.61
35.07
16.85
82.38
113.71
75.3
124.2
142.54
105.54
200.84
148.99
201.5
228.03
224.52
188.19
204.57
305.32
309.58
275.83
280.28
351.38
287.78
355.61
385.29
338.71
394.09
332.26
363.15
379.99
421.64
366.83
399.53
460.47
442.45
429.23
495.36
452.92
498.73
446.48
448.49
458.06
518.29
444.37
484.33
465.04
447.6
488.41
487.25
511.79
542.32
475.88
530.48
530.14
542.96
504.96
454.74
509.27
506.34
485.8
510.51
444.77
478.14
477.55
442.1
409.31
426.08
450.25
396.63
426.39
405.02
407.16
374.85
357.81
355.66
401.06
340.93
350.96
371.94
319.84
353.6
327.97
1782.19
267.04
300.82
245.63
230.33
276.12
178.84
165.43
138.99
144.86
193.69
136.81
83.61
91.66
145.88
55.91
36.48
53.1
28.32
23.66
41.65
-14.32
-32.37
3.59
-41.61
-105.54
-118.3
-46.34
-120.35
-78.58
-129.17
-159.02
-179.26
-201.7
-160.41
-246.83
-199.17
-268.81
-215.38
-262.38
-280.47
-309.4
-343.51
-318.6
-313.11
-305.56
-336.81
-396.5
-330.23
-409.91
-430.98
-426.68
-417.26
-385.67
-408.27
-437.15
-481.03
-399.16
-435.91
-475.35
-415.92
-467.29
-441.51
-495.13
-528.4
-505.07
-523.21
-522.98
-468.82
-446.53
-459.05
-477.3
-508.22
-499.59
-461.72
-510.54
-451.73
-493.04
-457.86
-513.26
-441.41
-478.07
-520.95
-511.99
-478.22
-423.14
-482.55
-472.88
-468.51
-429.04
-480.05
-416.34
-444.33
-431.97
-389.46
-344.99
-393.41
-377.39
-397.93
-303.22
-340.91
-320.94
-342.48
-330.47
-254.17
-326.24
-239.13
-212.36
-215.91
-213.48
-183.53
-205.54
-184.37
-193.34
-141.4
-109.03
-175.27
-136.45
-90.05
-44.87
-48.21
-24.55
-89.02
-9.04
-1.98
-8.05
25.98
15.35
27.31
39.75
54.74
52.82
69.65
83.49
114.26
113.52
169.87
130.8
234.55
201.62
219.84
278.37
269.23
260.92
245.04
308.79
328.76
292.06
349.35
378.85
376.71
303.42
335.73
368.61
368.65
438.43
382.17
387.62
370.47
462.75
441.31
450.54
450.71
420.16
475.79
465.2
459.8
2010.37
505.03
470.63
455.92
537.76
478.2
526.78
476.45
475.28
502.83
455.42
496.4
461.87
501.8
529.9
452.48
451.56
498.24
463.9
510.44
485.11
479.94
499.57
440.12
436.56
473.72
432.48
446.46
407.73
386.94
412.96
421.83
418.17
415.03
358.65
397.97
313.08
360.7
295.59
306.83
340.24
272.51
271.69
244.34
225.55
215.82
278.08
204.65
247.92
155.06
145.53
203.5
140.34
110.72
155.38
139.31
122.99
63.9
80.13
63.16
1.06
47.03
-20.03
-54.64
-38.69
-28.54
-101.8
-112.55
-42.54
-133.54
-75.2
-146.61
-164.65
-209.26
-135.84
-226.9
-183.2
-229.56
-194.36
-265.54
-245.13
-244.97
-254.83
-254.68
-301.1
-358.25
-301.06
-304.07
-377.17
-321.22
-414.09
-417.95
-359.48
-361.12
-436.39
-370.39
-438.77
-463.94
-410.15
-434.71
-472.39
-475.05
-512.32
-437.24
-504.47
-509.35
-451.77
-522.49
-502.48
-456.83
-471.52
-455.05
-543.62
-482.44
-540.51
-545.11
-457.81
-492.05
-532.66
-530.55
-472.19
-517.89
-473.09
-477.51
-525.16
-426.8
-461.69
-506.06
-499.21
-500.43
-445.5
-429.76
-472.61
-432.27
-422.5
-420.65
-419.19
-425.52
-369.71
-388.82
-394.07
-372.61
-341.34
-349.11
-325.69
-313.8
-299.72
-259.96
-286.73
-216.21
-274.11
-241.32
-233.22
-229.3
-205.73
-197.48
-110.01
-108.99
-167.1
-149.95
-52.61
-33.14
-52.77
-75.21
-8.39
4.85
17.56
1547.92
31.2
72.98
58.49
57.36
62.77
129.06
132
86.2
98.34
110.44
222.05
226.87
187.55
261.02
233.44
276.46
284.92
288.4
326.96
326.87
296.03
351.98
313.05
288.86
306.15
330.35
359.06
412.19
376.07
363.59
421.15
378.27
428.82
444.86
415
466.22
434.4
461.32
460.61
505.16
524
510.38
478.2
523.35
499.41
521.15
524.87
512.79
533.53
527.67
517.39
452.08
477.77
458.38
524.17
455.31
479.62
534.55
451.68
442.01
514.35
471.79
453.73
464.4
471.96
466.48
447.39
458.53
435.13
470.76
451.02
360.91
355.16
421.38
419.55
340.68
319.32
334.75
382.3
313.72
334.08
350.82
285.5
325.7
294.41
244.35
197.29
180.22
180.44
191.11
137.86
151.76
121.75
100.88
101.12
84.75
83.51
62.24
47.91
82.1
4.49
16.59
-30.8
-29.1
-39.15
-47.02
-90.8
-56.32
-75.96
-123.6
-107.8
-176
-95.1
-115.78
-129.95
-188.76
-222.85
-189.21
-262.19
-248.45
-214.61
-265.17
-294.62
-252.46
-279.03
-282.89
-283.33
-356.72
-395.71
-391.01
-355.12
-350.15
-355.24
-437.32
-386.06
-435.61
-447.56
-440.54
-479.23
-401.92
-488.39
-497.14
-433.54
-454.67
-475.22
-489.61
-499.88
-526.29
-441.53
-468.1
-447.28
-494.68
-482.99
-539.22
-507.33
-520.98
-486.76
-471.26
-514.16
-489.67
-451.99
-540
-520.25
-516.17
-452.15
1019.55
-469.18
-464.72
-460.15
-480.12
-456.51
-430.79
-420.23
-454.22
-404.1
-409.25
-386.21
-364.76
-366.74
-348.12
-379.35
-354.44
-330.67
-361.26
-316.98
-293.16
-303.78
-246.64
-224.22
-246.58
-275.85
-227.1
-261.49
-205.91
-154.98
-207.48
-147.05
-136.8
-108.29
-109.86
-67.71
-118.2
-74.57
-50.16
-48
18.77
-15.45
20.74
-20.98
68.52
45.69
54.39
126.31
132.91
135.65
105.33
171.34
196.54
135.29
191.26
226.71
179.86
249.85
196.28
288.03
231.6
277.22
318.96
251.23
339.46
316.19
330.77
338.45
375.75
342.81
328.65
400.41
399.77
419.55
456.74
409.47
456.53
441.71
422.7
438.38
473.41
492.38
470.72
472
527.87
467.68
533.5
491.56
456.43
485.31
480.2
490
519.06
518.24
528.55
467.95
473.42
466.19
508.42
483.46
521.82
470.13
464.5
474.63
459.84
464.37
462.81
458.16
452.87
446.93
435.89
434.52
435.28
368.45
406.46
441.25
397.55
339.1
332.78
382.2
312.82
331.94
350.7
281.34
330.1
310.1
295.94
292.4
273.36
276.97
211.14
237.41
168.63
197.06
207.9
152.67
136.12
170.04
108.82
87.45
126.55
106.06
64.45
20.77
6.42
55.68
15.54
-37.85
-60.36
-73.69
-100.75
-83.63
-68.28
-120.04
-108.93
-186
-134.09
-169.82
-226.34
-191.67
-208
-257.32
-256.19
-238.9
-241.01
-274.42
-238.52
1242.14
-317.72
-325.54
-352.27
-373.52
-383.79
-320.56
-342.29
-422.48
-430.22
-373.5
-454.9
-464.17
-463.76
-454.96
-434.26
-429.27
-461.82
-455.63
-425.88
-430.37
-429.11
-442.09
-499.27
-492.4
-539.24
-491.01
-510.32
-460.64
-495.17
-459.3
-465.13
-496.68
-495.94
-495.54
-458.92
-474.45
-474.58
-524.64
-534.95
-483.85
-454.89
-464.4
-433.72
-428.78
-461.77
-425.42
-459.12
-433.11
-433.38
-379.43
-448.1
-431.5
-379.95
-360.78
-415.9
-391.34
-341.83
-316.13
-299.31
-284.56
-334.27
-324.35
-282.17
-287.47
-266.72
-224.82
-229.12
-171.45
-220.01
-152.2
-143.82
-168.25
-101.47
-128.85
-111.48
-106.62
-138.42
-92.91
-88.09
-28.2
-20.49
33.03
9.67
36.67
79.92
38.57
10.54
54.82
135.28
106.62
133.42
94.32
159.16
147.77
134.55
229.3
209.8
227.58
221.64
286.31
257.06
236.75
263.18
272.25
331.59
340.83
281.16
312.83
335.79
406.78
412.34
342.61
429.38
357.07
378.59
380.61
391.07
474.49
399.88
478.75
454.17
507.79
427.36
422.77
483.32
433.03
455.06
491.95
523.27
529.32
517.87
478.46
499.79
513.14
532.04
455.72
548.21
506.84
480.23
494.23
494.08
488.45
533.73
467.64
474.59
510.95
465.62
461.48
484.75
494.08
469.16
466.97
451.39
441.69
442.72
410.31
439.13
342.1
366.85
322.08
370.01
390.19
306.28
344.19
328.49
287.49
1831.97
287.99
264.97
253.16
203.85
221.69
248.87
165.85
203.25
197.79
173.34
145.2
108.02
100.22
122.13
40.08
103.59
65.17
9.62
-22.41
-18.21
8.75
4.86
-77.88
-17.45
-93.19
-129.26
-148.86
-94.47
-123.37
-194.16
-114.85
-145.9
-201.13
-242.43
-226.46
-277.24
-271.9
-305.48
-283.5
-239.85
-302.53
-331.44
-309.71
-322.5
-324.52
-331.68
-384.79
-409.36
-421.61
-376.64
-364.6
-370.12
-409.61
-403.84
-394
-457
-415.91
-459.92
-410.99
-469.76
-433.5
-508.54
-477.71
-472.89
-492.8
-517.65
-461.55
-453.89
-450.18
-460.32
-520.99
-545.09
-535.85
-495.91
-485.16
-484.96
-445.89
-517.13
-524.27
-474.84
-435.25
-516.81
-522.14
-471.01
-454.21
-429.74
-495.33
-443.59
-421.66
-397.57
-392.52
-460.3
-386.46
-420.1
-388.58
-400.72
-357.28
-369.16
-319.91
-308.84
-306.04
-326.53
-289.14
-252.73
-303.95
-298.89
-280.04
-214.48
-231.34
-180.35
-221.46
-226.7
-151.19
-180.44
-186.65
-85.8
-119.39
-114.52
-98.85
-80.08
-87.87
-76.05
-65.89
5.88
-28.43
16.2
26.14
14.27
44.09
55.37
105.25
68.28
176.14
155.25
154.4
212.2
219.93
221.63
211.01
232.19
251.05
240.01
249.55
293.48
259.64
313.67
354.78
313.83
359.76
362.39
370.72
332.51
391.15
384.17
381.68
394.83
449.6
426.14
423.61
442.23
432.55
418.8
433.94
512.28
481.7
1964.63
488.02
478.52
524.34
450.66
526.54
480.4
508.5
486.73
487.27
512.25
519.99
515.2
498.15
522.85
451.63
495.86
516.26
463.45
491.13
511.39
434.42
465.14
427.35
466.25
410.15
461.63
399.74
469.88
434.28
427.54
454.44
441.15
361.31
398.39
395.97
394.44
307.03
290.93
304.03
351.63
348.72
266.52
288.31
225.97
250.31
277.56
219
167.23
175.44
220.97
138.32
160.15
124.01
140.22
136.9
93.09
65.44
47.68
26.6
64.15
49.26
48.47
-33.65
-33.74
-50.04
-45.62
-53.74
-63.27
-118.16
-155.26
-116.74
-104.05
-196.05
-123.39
-197.47
-199.95
-167.02
-248.37
-255.49
-214.87
-279.96
-251.73
-272.79
-307.27
-333.12
-365.98
-360.63
-371.76
-343.83
-417.92
-411.94
-430.9
-419.62
-360.58
-432.07
-450.94
-464.03
-392.69
-439.92
-496.03
-410.65
-436.78
-459.86
-471.72
-448.35
-475.54
-502.25
-521.62
-510.09
-507.85
-491.97
-452.09
-531.35
-520.33
-456.19
-545.76
-509.6
-484.42
-526.7
-471.18
-448.46
-501.38
-472.58
-529.31
-500.94
-428.49
-491.77
-444.45
-445.39
-450.83
-483.83
-422.24
-442.94
-463.88
-364.18
-351.28
-359.14
-399.64
-394.36
-354.84
-326.58
-350.57
-375.55
-362.4
-288.95
-315.53
-326.14
-311.74
-287.46
-246.79
-227.03
-220.46
-151.56
-185.04
-202.52
-157.37
-128.1
-150.19
-158.67
-77.66
-92.53
-58.04
-96.58
6.46
20.19
-46.91
1466.39
39.27
6.55
81.91
58.21
74.94
55.67
114.52
77.29
181.74
156.87
149.11
206.99
206.22
163.83
260.73
204.2
268.07
224.08
257.2
328.49
344.43
347.59
349.7
360.8
321.67
333.96
340.97
328.97
427.98
426.82
440.7
379.46
447.94
443.92
485.71
408.85
472.03
434.11
445.83
473.49
509.48
450.99
512.91
520.23
522.05
511.17
541.68
509.38
494.15
482.86
480.48
463.95
534.69
457.48
537.68
476.18
516.67
484.12
529.2
531.78
459.07
510.46
507.65
434.24
501.32
483.91
467.86
466.95
445.82
401.68
393.07
459.53
418.24
387.22
430.05
370.01
334.62
352.58
294.44
376.12
338.47
350.51
297.2
259.86
265.62
302.11
291.82
256.12
232.29
178.49
204.07
200.7
160.54
97.6
166.82
111.01
111.82
57.83
105.27
23
26.11
77.27
9.53
29.34
27.14
10.47
-40.48
-108.28
-118.66
-84.32
-149.85
-128.38
-161.42
-183.49
-152.64
-185.21
-204.51
-193.39
-244.05
-231.83
-267.28
-306.83
-307.76
-309.88
-282.77
-310.64
-277.2
-351.75
-354.87
-337.84
-337.42
-327.85
-397.88
-443.39
-399.86
-408.38
-400.54
-437.09
-451.13
-487.97
-410.17
-485.38
-450.46
-513.45
-469.93
-464.91
-472.98
-478.21
-477.23
-533.76
-527.88
-504.81
-474.06
-546.69
-514.08
-517.05
-497.25
-520.5
-498.34
-491
-498.09
-470.41
-529.1
-458.35
-465.61
-526.28
1065.14
-434.38
-493.57
-476.49
-462.58
-413.94
-477.31
-446.7
-399.78
-429.14
-444.76
-435.4
-377.14
-396
-372.61
-326.14
-331.58
-361.58
-323.06
-297.75
-316.1
-319.94
-221.11
-238.49
-262
-262.46
-247.98
-177.14
-183.13
-168.75
-171.14
-100.52
-121.58
-155.49
-147.07
-67.97
-42.49
-94.11
-28.38
0.27
-7.7
-37.92
-2.89
37.22
58.2
62.68
106.44
126.54
63.73
106.4
166.02
112.86
191.8
181.65
171.37
213.14
261.48
196.59
222.3
279.51
232.85
326.4
308.24
293.4
289.41
325.02
309.66
336.26
341.56
390.16
342.89
441.64
382.91
431.2
387.95
413.39
432.12
426.11
451.37
417.27
471.32
460.74
481.36
485.94
485.57
444.27
477.99
442.03
512.06
487.84
538.81
451.83
517.28
503.45
451.34
488.27
517.13
492.55
535.01
461.48
522.24
504.13
433.73
476.75
498.12
437.56
436.46
417.42
460.86
459.01
456.33
459.47
407.76
418.65
372.38
346.66
417.22
405.11
396.58
384.2
304.68
343.91
363.35
312.41
277.03
332.4
232.65
232.24
280.83
269.34
238.09
165.77
167.1
147.59
212.45
192
91.02
105.35
60.34
54.62
121.24
55.38
95.48
-8.61
-20.57
-27.02
10.24
-3.14
-21.9
-86.27
-78.82
-108.44
-57.11
-136.18
-105.56
-114.17
-186.72
-224.43
-197.51
-156.91
-210.73
-200.72
-243.97
-233.23
-310.68
-244.87
1254.89
-342.83
-297.98
-337.71
-314.82
-399.14
-388.36
-347.75
-399.54
-366.18
-377.32
-433.15
-418.53
-394.51
-452.25
-436.1
-420.07
-426
-413.55
-513.96
-472.32
-522.3
-479.32
-507.74
-476.77
-456.09
-498.82
-502.64
-452.01
-511.22
-525.47
-513.19
-472.56
-460.37
-457.79
-455.3
-475.63
-480.97
-534.32
-524.95
-502.42
-517.01
-431.22
-504.4
-492.42
-499.55
-466.29
-465.45
-401.35
-386.8
-443.23
-419.86
-360.92
-443.07
-405.25
-408.2
-365.08
-392.02
-316.76
-325.71
-313.41
-298.13
-324.43
-311.94
-248.41
-246.75
-264.4
-262.94
-238.34
-252.79
-210.84
-222.11
-152.71
-126.96
-182.4
-168.47
-102.88
-46.34
-76.08
-84.73
-89.55
3.76
5.39
-2.01
-4.98
50
58.33
87.72
54.21
80.23
132.64
92.92
143.13
192.19
125.65
207.11
218.11
222.41
171.96
267.84
219.47
301.35
304.52
258.04
285.72
313.35
271.68
336.86
373.19
347.67
382.72
396.39
352.02
346.33
445.38
430.95
462.06
439.47
432.2
401.43
408.66
480.52
476.46
514.9
443.28
524.92
464.41
444.34
481.32
505.76
519.34
475.81
481.59
484.56
453.79
502.04
523.81
479.42
546.96
521.13
473.94
475.4
528.87
472.15
499.94
520.26
480.91
462.81
432.71
437.76
455.18
463.31
445.78
439.13
465.37
415.11
420.3
430.26
421.82
405.64
376.45
395.25
312.71
383.99
310.54
330.92
284.05
1741.33
249.06
237.71
251.12
195.92
262.47
217.99
227.17
199.62
152.3
106.05
162.25
105.21
70.47
54.73
47.22
52.35
59.43
37.38
23.38
-28.56
-25.62
-20.88
-14.46
-57.82
-54.53
-54.23
-105.8
-152.78
-100.18
-159.31
-112.43
-155.35
-167.43
-196.27
-171.46
-245.83
-212.09
-286
-221.93
-303.6
-308.31
-270.97
-325.74
-371.6
-363.65
-355.73
-394.74
-359.89
-357.03
-386.98
-380.13
-402.73
-410.67
-446.81
-427.41
-394.86
-429.54
-426.39
-411.97
-496.06
-489.17
-470.58
-513.67
-510.49
-476.46
-465.88
-540.84
-505.89
-476.59
-485.39
-489.9
-450.04
-532.43
-478.7
-536.81
-462.8
-446.31
-500.67
-446.97
-447.53
-503.58
-522.97
-522.81
-486.41
-512.15
-483.21
-501.24
-445.28
-477.12
-406.68
-436.86
-454.34
-447.88
-424.48
-404.65
-401.46
-376.3
-384.39
-311.34
-327.95
-279.76
-359.84
-259.34
-296.03
-244.84
-263.67
-298.92
-194.23
-268.64
-243.41
-158.08
-141.25
-138.45
-180.01
-141.77
-150.28
-80.53
-143.51
-99.58
-68.46
-42.93
-24.82
-26.96
-29.99
2.81
-16.11
42.08
12.37
39.54
44.49
132.07
95.51
159.85
171.74
124.29
187.88
163.51
221.26
168.63
202.61
249.41
218.94
231.99
296.02
290.75
301.35
309.86
293.97
319.83
317.96
353.47
389.19
394.84
395.03
355.62
389.83
427.31
384.89
426.63
400.42
420.96
464.14
432.26
484.12
427.1
436.58
2008.31
494.89
480.3
537.56
504.47
527.41
478.52
526.64
538.79
521.6
493.87
544.99
459.05
457.59
474.25
532.99
485.28
441.38
458.95
442.94
456.85
433.78
456.31
503.2
470.27
418.65
450.73
396.83
424.82
413.55
389.98
357.41
350.9
375.41
418.01
348.96
331.04
318.14
333.75
361.97
300.46
324.16
310.73
293.32
248.46
285.16
232.75
194.19
192.25
192.68
174.3
139.38
178.44
130.18
103.68
148.89
95.21
92.75
93.63
52.88
8.93
29.35
22.46
-52.04
8.86
-60.08
-88.81
-28.38
-55.2
-148.43
-99.54
-104.64
-158.6
-150.75
-192.31
-154.68
-218.22
-219.82
-206.97
-221.18
-263.51
-301.81
-300.14
-265.27
-317.67
-333.02
-284.57
-305.56
-346.52
-366.05
-360.52
-392.66
-406.69
-372.49
-370.76
-382.42
-461.68
-399.69
-440.68
-463.33
-445.95
-495.96
-451.34
-433.63
-442.26
-492.77
-495.65
-450.53
-486.35
-476.82
-510.75
-462.15
-524.62
-535.49
-510.67
-481.57
-530.01
-536.88
-506.7
-514.05
-499.9
-470.08
-459.49
-494.79
-504.81
-498.84
-429.26
-483.86
-440.2
-407.83
-415.51
-449.35
-443.9
-393.48
-427.24
-373.19
-411.9
-395.24
-405.12
-412.88
-321.86
-381.24
-285.66
-291.41
-261.37
-290.88
-300.77
-262.02
-222.22
-227.89
-236.42
-253.68
-168.61
-180
-203.68
-187.23
-113.65
-174.01
-153.02
-150.88
-43.52
-71.78
-98.58
-62.53
-23.1
-61.02
46.52
43.6
56.71
53.76
108.65
42.15
119.35
92.24
148.35
94.95
191.45
131.49
215.26
173.93
213
206.67
242.98
271.43
245.33
268.11
255.59
277.11
266.96
306.67
329.05
344.52
332.07
367.65
404.01
379.64
399.16
442.38
445.28
433.06
393.68
444.95
474.99
422
463.18
486.42
496.45
481.77
443.38
514.2
470.19
504.03
456.03
485.22
465.8
482.83
453.66
526.97
538.82
497.79
463.88
454.95
522.33
537.66
469.3
460.7
522.67
464.01
522.18
485.86
426.67
442.44
478.58
487.78
478.79
390.4
418.68
377.71
424.55
390.08
430.86
344.41
393.46
362.17
403.98
297.35
360.82
338.74
290.49
318.85
324.62
315.49
299.85
206.26
186.91
186.37
232.82
164.56
202.84
156.6
127.47
102.65
83.3
93.04
101.98
121.64
28.27
34.92
42.34
62.96
-39.16
35.46
-36.12
-73.95
-57.32
-28.88
-102.03
-95.55
-79.34
-95.31
-106
-130.04
-215.45
-231.02
-220.16
-212.45
-265.43
-264.77
-256.7
-304.31
-309.03
-297.88
-302.44
-332.4
-354.25
-359.15
-379.5
-328.42
-390.05
-382.17
-439.46
-378.82
-405.87
-394.56
-377.2
-413.94
-415.34
-409.55
-458.82
-455.88
-423.12
-508.71
-452.48
-453.96
-499.16
-445.7
-448.59
-471.81
-541.16
-501.56
-455.48
-465.43
-545.73
-521.8
-479.67
-512.9
-502.2
-529.95
-542.01
-522.82
-483.96
-522.67
-429.75
995.45
-494.96
-478.82
-433.88
-494.16
-476.07
-392.57
-462.75
-434.97
-393.61
-366.91
-372.91
-404.23
-337.92
-388.14
-383.43
-313.31
-316.59
-308.92
-361.64
-255.62
-321.23
-254.9
-242.55
-273.55
-267.54
-232.62
-174.94
-173.33
-176.02
-183.54
-127.4
-134.08
-111.48
-131.39
-62.26
-33.54
-63.83
-32.98
-34.67
20.86
20.76
2.26
-5.04
67.31
48.24
75.23
63.47
79.97
121.58
115.34
124.71
176.2
208.81
206.7
186.77
231.37
228.88
282.73
264.01
299.78
290.93
263.65
268.94
290.45
281.4
311.18
313.82
338.61
382.33
420.21
348.16
356.61
414.04
366.89
416.48
426.67
419.17
496.23
414.38
489.32
458.52
458.78
510.78
511.94
451.72
466.22
479.56
523.7
518.14
517.5
542.68
454.46
539.15
534.02
517.21
533.48
498.22
472.54
482
490.13
456.21
491.96
511.56
482.82
499.67
482.04
454.23
474.56
423.83
460.05
409.07
397.97
425.63
447.31
440.62
356.17
355.55
325
389.83
375.53
346.98
375.26
292.05
294.55
270.5
242.3
238.03
223.07
210.84
248.68
170.53
159.45
145.04
165.75
202.43
148.46
108.52
140.02
108.15
83.48
93.95
100.73
46.09
49.34
31.76
-52.2
-67.86
-85.4
-44.99
-88.31
-55.22
-146.94
-87.67
-84.65
-134.99
-197.01
-136.14
-194.75
-184.5
-175.79
-267.16
-243.39
-276.9
-305.15
-327.35
-319.14
1239.57
-311.12
-295.65
-357.33
-320.01
-351.37
-324.85
-393.53
-397.02
-408.92
-453.33
-437.75
-426.93
-479.43
-406.38
-443.98
-441.02
-449.1
-473.17
-438.53
-514.53
-493.53
-449.64
-524.3
-486.97
-492.7
-524.13
-490.48
-518.09
-526.62
-474.35
-498.28
-467.03
-476.8
-534.22
-509.43
-446.54
-505.03
-525.91
-474.97
-432.61
-449.05
-470.07
-499.05
-469.11
-441.36
-490.76
-463.2
-462.48
-413.15
-387.6
-449.26
-401.04
-434.36
-401.53
-384.65
-338.44
-370.96
-334.32
-296.73
-337.92
-345.27
-304.09
-244.95
-229.41
-290.03
-226.79
-261.59
-184.96
-237.19
-218.98
-219.92
-198.9
-118.65
-115.74
-110.01
-138.8
-112.12
-89.76
-10.87
-15.96
-63.68
-13.15
36.69
0.26
62.01
11.72
54.56
89.74
120.51
139.47
112.99
150.13
199.53
188.85
169.37
182.77
259
202.49
265.55
225.56
230.3
286.84
299.59
295.48
306.96
321.65
348.32
365.49
347.82
329.71
334.51
378.29
372.02
436.99
421.44
453.62
388.95
479.37
399.91
495.27
419.21
485.1
494.84
468.36
493.06
494.23
495.79
502.42
476.57
462.97
469.15
478.38
476.02
520.06
502.69
524.45
539.22
527.93
499.54
509.64
494.45
528.84
451
451.41
499.43
509.02
454.85
509.74
437.86
468.52
413.03
446.12
394.43
372.98
431.03
381.5
359.02
353.24
391.86
384.77
344.31
332.23
338.26
358.28
266.73
287.42
281.75
275.88
285.38
269.2
256.69
219.57
203.57
163.42
187.57
132.58
125.74
164.24
125.08
148.5
132.1
30.13
98.34
82.83
24.71
34.65
-34.56
30.72
-71.81
-74.48
-75.31
-88.74
-56.41
-86.77
-122.53
-93.13
-121.26
-207.71
-159.79
-212.64
-190.77
-185.8
-220.81
-288.39
-224
-296.84
-250.11
-266.97
-264.93
-292.15
-329.78
-361.02
-345.74
-358.71
-362.58
-392.05
-382.31
-426.43
-430.25
-404.39
-405.03
-467.82
-453.47
-469.83
-499.03
-486.42
-512.94
-482.37
-526.57
-471.44
-501.98
-450.79
-502.35
-499.77
-540.58
-519.24
-479.52
-472.48
-532.73
-545.71
-509.33
-463.3
-533.92
-538.39
-527.59
-523.09
-496.82
-515.32
-472.4
-509.31
-459.41
-435.92
-417.42
-423.55
-483.01
-439.98
-460.47
-411.78
-406.29
-433.32
-442.5
-389.56
-366.85
-361.74
-389.95
-388.48
-348.86
-342.76
-348.88
-269.98
-299.62
-285.22
-223.88
-258.24
-279.89
-195.55
-220.92
-146.91
-181.65
-210.3
-129.51
-159.35
-75.87
-97.37
-65.22
-115.78
-53.53
-20.92
-69.64
-64.8
49.98
-21.12
50.85
12.91
46.55
84.01
83.19
80.32
75.63
95.58
125.34
148.47
135.8
149.96
242.27
172.57
219.06
240.17
285.38
243.33
237.92
288.7
316.78
273.8
302.53
361.38
343.41
321.53
378.45
394.49
400
371.16
387.7
429.14
408.91
477.63
411.36
459.22
437.94
492.3
424.57
494.43
1963.17
526.6
492.65
479.97
517.76
502.3
457.03
499.81
538.51
531.72
533.14
481.96
540.82
512.22
521.28
511.46
453.7
530.72
440.41
491.95
515.21
513.56
452.17
489.89
491.21
408.23
489.94
471.67
444.54
426.96
368.82
415.69
408.19
404.68
357.41
318.32
321.97
352
299.38
333.15
297.23
256.71
329.35
251.48
238.96
223.44
275.07
192.97
218.92
212.27
181.7
196.78
167.16
171.61
101.18
117.92
48.75
69.8
63.31
51.61
79.67
36.04
44.78
-41.59
-70.45
-35.33
-78.47
-49.14
-129.66
-135.19
-126.61
-177.93
-183.59
-115.21
-134.45
-205.55
-168.41
-192.91
-185.32
-290.32
-224.48
-247.76
-287.62
-323.96
-351.2
-330.02
-336.88
-373.74
-374.58
-335.13
-419.97
-381.2
-400.26
-390.66
-412.46
-438.2
-393.31
-411.66
-443.98
-407.43
-440.1
-415.32
-474.49
-470.65
-470.58
-522.6
-485.68
-503.94
-480.73
-531.13
-488.79
-546.57
-538.98
-473.53
-528.87
-496.95
-462.57
-487.55
-530.4
-453.2
-535.47
-501.58
-511.93
-442.67
-485.91
-506.76
-470.61
-501.49
-472.36
-447.56
-440.65
-418.73
-428.9
-448.46
-384.01
-419.88
-359.58
-387.8
-352.15
-351.38
-321.25
-300.72
-340.76
-289.57
-343.58
-304.83
-271.88
-299.01
-310.65
-294.48
-274.05
-267.82
-221.46
-200.64
-227.91
-205.93
-203.24
-154.3
-115.15
-139.76
-99.4
-72.15
-35.73
-33.93
10.22
-54.61
-36.47
1520.05
-13.08
48.42
53.76
26.63
57.54
72.1
123.82
178.28
191.44
144.56
128.23
211.09
197.27
168.4
207.38
243.85
226.36
306.59
295.07
313.52
269.23
356.55
300.01
321.12
332.41
328.17
330.04
392.9
374.12
394.83
410.6
420.35
388.5
459.64
393.51
410.1
462.56
455.13
448.68
519.92
443.43
461.33
451.67
505.9
514.86
514.02
484.77
463.29
466.82
534.38
529.93
526.74
549.11
450.67
469.13
477.87
465.81
496.04
530.18
451.45
480.53
496.02
428.53
497.1
424.53
493.35
473.14
465.42
429.36
411.52
374.57
437.01
427.75
398.95
331.76
337.02
403.9
385.38
385.33
287.05
326.64
294.63
268.53
233.56
307.02
215.09
257.97
187.4
189.49
150
224.36
191.65
192.97
111.25
104.34
94.49
54.01
35.6
67.97
13.43
42.64
28.65
38.37
42.2
6.04
-55.44
-65.17
-43.63
-76.45
-85.04
-144.57
-82.38
-108.24
-149.46
-130.23
-154.65
-242.66
-162.82
-272.67
-245.1
-221.55
-244.38
-248.63
-320.02
-267.35
-328
-292.06
-350.05
-354.32
-388.21
-365.63
-371.05
-353.12
-434.24
-358.17
-413.18
-431.27
-425.85
-456.62
-412.52
-405.07
-489.51
-496.48
-442.98
-498.2
-510.48
-531.65
-442.37
-492.99
-472.94
-506.54
-465.47
-488.81
-456.24
-451.44
-487.15
-530.35
-525.98
-533.43
-484.9
-446.57
-538.75
-473.02
-447.06
-451.31
-472.39
-477.78
-489.54
-496.19
-473.24
-405.11
-425.96
-448.16
-435.43
-457.22
-456.22
-420.39
-433.88
-358.8
-356.58
-407.8
-317.02
-383.37
-350.56
-345.41
-258.43
-242.3
-267.47
-296.77
-266.87
-277.04
-205.42
-199.94
-215.07
-189.74
-173.74
-166.77
-139.17
-162.51
-85.1
-127.1
-74.94
-37.04
-11.98
-60.66
-24.29
36.05
-20.51
32.06
-12.05
83.1
41.45
104.1
54.29
158.7
118.42
96.92
129.86
186.48
225.38
231.36
173.05
242.33
203.72
230.4
227.04
240.94
298.28
343.06
288.9
311.3
316.25
364.58
353.48
371.24
353.43
406.86
370.16
377.84
368.08
413.73
403.32
399.01
440.03
435.81
495.77
437.06
486.68
430.65
473.68
460.22
536.11
443.79
529.05
446.51
502.66
470.64
470.97
457.03
486.58
545.83
495.15
510.64
472.45
469.2
536.52
464.99
523.86
450.88
437.96
466.2
487.75
425.83
476.48
411.81
470.95
452.27
456.6
445.24
375.21
450
379.36
334.26
376.88
397.08
341.19
343.93
372.07
304.6
325.72
332.43
256.91
290.06
302.1
193.43
203.02
191.96
199.43
226.44
177.15
128.27
172.89
116.73
67.09
144.73
41.85
35.98
16.34
39.8
0.71
-25.44
11.19
-53.87
4.58
-61.31
-110.12
-63.05
-98.18
-153.52
-117.25
-121.38
-169.81
-138.81
-215.45
-145.2
-229.45
-232.07
-245.17
-247.19
-219.57
-235.1
-287.94
1217.47
-327.63
-362.11
-352.13
-344.6
-385.72
-335.12
-349.77
-403.4
-380.35
-400.12
-377.35
-446.41
-447.9
-448.26
-479.46
-451.01
-485.26
-452.08
-432.63
-428.64
-515.84
-529.73
-511.61
-521.54
-536.77
-526.5
-479.35
-451.65
-513.69
-475.4
-484.84
-533.42
-452.27
-524.91
-468.98
-486.84
-503.49
-448.2
-440.3
-526.53
-439.98
-446.69
-514.65
-478.8
-481.81
-402.78
-400.1
-472.28
-412.12
-373.9
-384.52
-395.02
-356.33
-419.43
-328.78
-316.62
-347.48
-307.35
-370.88
-348.84
-299.25
-248.25
-324.94
-268.75
-281.89
-264.18
-265.02
-193.64
-190.21
-177.44
-160.32
-120.98
-193.67
-86.43
-91.19
-129.69
-112.64
-101.74
-26.17
-19.23
-72.05
-9.64
-48.26
20.09
10.8
-2.93
64.78
47.56
84.12
137.03
120.01
179.22
120.31
170.29
214.09
185.78
222.34
212.03
194.43
265.16
221.58
309.53
291.17
257.52
299.22
296.33
282.7
371.98
316.06
382
328.39
428.63
402.22
445.26
432.02
443.05
464.49
476.36
418.86
490.03
497.81
495.98
474.89
521.02
450.1
522.31
496.02
480.91
458.68
479.29
484.56
464.6
494.28
479.91
516.69
514
455.59
513.52
514.32
532.38
506.22
529.51
511.85
499.26
456.42
467.74
464.12
510.67
433.29
426.28
468.11
386.56
389.21
436.72
444.61
384.84
369.2
341.47
369.74
413.58
388.35
325.63
329.08
334.36
340.38
329.45
1822.78
256.11
238.56
286.18
245.53
262.84
241.6
167.93
133.89
209.64
197.28
124.85
117.78
78.7
101.38
67.18
15.19
76.57
6.2
43.12
40.34
-23.6
-67.96
-87.04
-106.03
-115.76
-46
-76.51
-99.99
-172.56
-111.91
-177.12
-174.47
-185.11
-200.1
-168.85
-234.53
-262.93
-250.27
-248.15
-248.94
-246.61
-310.46
-310.34
-356.19
-301.87
-316.14
-382.24
-329.06
-385.23
-349.31
-405.47
-402.04
-391.05
-432.4
-444.74
-394.63
-430.47
-502.45
-508.52
-430.69
-479.96
-498.65
-490.97
-443.06
-533.43
-536.5
-464.76
-452.7
-521.83
-472.78
-520.94
-506.74
-471.87
-533.97
-514.17
-509.13
-518.56
-485.86
-475.96
-495.55
-519.31
-468.48
-500.9
-469.78
-511.73
-484.09
-435.02
-449.29
-406.62
-453.27
-378.89
-416.8
-403.75
-429.22
-417.8
-355.62
-333.58
-308.8
-348.69
-362.2
-343.75
-284.48
-307.25
-238.94
-289.38
-300.17
-227.84
-249.33
-210.38
-252.95
-201.57
-141.7
-184.24
-118.8
-157.45
-116.6
-128.1
-142.98
-84.73
-87.12
-25.85
-38.71
-31.67
-11.24
-1.35
73.53
69.32
104.87
48.8
132.81
98.97
84.17
129.58
153.49
203.33
140.12
208.34
166.25
221.18
244.91
226.6
229.87
232.38
302.3
302.62
353.13
365.76
318.11
360.96
352.62
374.11
344.14
386.94
416.85
400.38
372.13
430.8
436.56
460.19
434.79
413.77
497.34
454.04
487.11
486.53
448.91
529.84
439.88
522.09
496.6
468.3
496.78
545.5
480.59
523.89
479.79
508.51
544.71
450.54
447.53
482.4
466.23
522.79
533.26
522.98
439.75
444.95
451.72
504.85
488.85
408.15
411.09
416.52
399.48
471.94
371.88
410.53
445.12
400.67
393.63
353.92
334.22
379.09
328.84
321.98
278.06
346.48
292.43
308.58
226.93
260.49
189.99
197.24
166.01
219.66
209.31
176.33
197.52
117.12
80.81
136
71.95
83.28
112.29
35.17
57.45
-24.46
-21.79
29.67
-41.03
-8.92
-35.74
-93.48
-56.64
-125.38
-155.55
-151.61
-132.02
-107.53
-168.27
-213.55
-204.58
-198.26
-227.47
-231.28
-256.26
-245.81
-279.79
-312.54
-346.64
-339.8
-307.28
-300.28
-383.29
-366.88
-362.98
-402.01
-409.61
-434.07
-358.05
-422.87
-374.68
-404.28
-416.22
-458.8
-410.07
-437.71
-464.38
-437.26
-459.12
-499.16
-514.14
-466.4
-503.17
-456
-492.94
-487.15
-506.62
-495.27
-515.47
-452.15
-511.63
-473.15
-490.81
-499.62
-539.5
-442.17
-462.61
-440.18
-438.78
-434.71
-429.82
-468.42
-448.68
-476.67
-404.27
-432.82
-426.94
-445.21
-433.31
-438.48
-395.54
-381.74
-377.39
-417.66
-328.03
-358.1
-297.65
-372.86
-285.26
-255
-264.4
-269.82
-273.1
-276.76
-243.59
-200.14
-245.97
-156.34
-206.08
-141.5
-178.48
-175.95
-107.45
-140.28
-97.66
-68.98
-107.79
-47.3
-76.4
-19.01
-15.51
1484.05
38.91
-0.45
76.02
47.52
99.63
57.87
104.67
161.45
178.65
159.3
140.18
195.16
207.78
205.6
189.23
201.16
248.04
218.93
293.88
320.85
305.32
275.33
309.34
317.41
385.58
340.05
319.31
370.42
356.12
438.32
399.11
425.82
409.66
462.63
403.45
410.97
483.95
425.97
481.27
504.15
493.28
470.84
455.1
471.65
499.12
537.47
499.99
515.48
448.46
481.72
525.03
539.69
536.56
532.99
474.39
460.39
508
446.89
457.06
446.12
450.32
498.48
451.21
507.87
463.11
426.34
435.85
440.81
422.92
418.51
406.8
433.64
431.4
411.34
364.98
369.78
402.62
339.87
377.81
329.76
270.73
283.63
270.62
275.57
296.68
240.36
272.89
246.83
173.81
208.83
175.39
154.11
150.85
185.68
157.86
98.75
115.92
120.21
89.69
21.93
89.91
-8.38
49.09
36.97
-23.91
6.56
-43.35
-84.25
-33.28
-75.73
-79.58
-79.07
-169.72
-152.27
-167.94
-215.87
-150.66
-252.72
-235.92
-206.26
-243.48
-305.51
-309.95
-304.42
-268.62
-297.35
-296.88
-307.35
-334.1
-382.07
-394.66
-378.91
-416.2
-392.16
-437.25
-438.15
-405.98
-438.59
-419.42
-460.17
-485.24
-488.2
-412.62
-504.6
-437.96
-468.99
-524.13
-520.89
-476.03
-530.25
-509.73
-543.59
-458.82
-525.56
-519.86
-467.15
-472.23
-506.55
-454.1
-491.6
-507.06
-445.9
-511.04
-528
-502.65
-495.92
1051.79
-496.68
-494.12
-465.52
-420.6
-452.28
-403.94
-467.42
-452.39
-390.05
-397.7
-375.82
-431.78
-346.61
-403.9
-349.42
-368
-327.42
-273
-313.86
-287.2
-288.44
-278.89
-306.03
-283.4
-267.23
-258.5
-160.06
-223.94
-142.93
-192.65
-157.88
-174.12
-88.56
-96.87
-102.36
-31.76
-57.17
-70.97
-32.06
-44.12
-45.41
-5.58
6.66
30.88
79.51
49.21
130.28
113.76
143.39
183.15
198.34
145.75
140.14
225.78
169.55
211.24
249.1
265.7
287.28
235.18
307.33
281.39
279.72
352.67
304.06
333.69
344.85
340.13
367.45
380.18
432.95
400.98
454.11
467.92
447.33
412.17
478.35
484.8
478.47
418.33
480.93
482.39
496.48
525.02
440.21
493.51
447.09
492.24
488.3
524.4
534.81
476.88
505.9
510.9
536.48
527.31
538.26
484.26
453.69
445.43
470.84
489.9
443.53
438.92
493.68
481.48
486.8
401.36
397.2
419.84
474.88
377.75
458.54
429.67
374.17
353.06
374.64
347.98
343.09
384.73
300.48
287.74
314.89
249.25
314.12
249.04
274.9
274.57
269.92
227.47
200.82
217.05
138.49
189.06
154.09
127.26
106.06
153.16
52.49
109.46
54.47
59.74
29.83
25.77
52.06
-34.84
-24.1
-0.09
-34.55
-33.57
-136.85
-130.78
-159.51
-116.04
-140.33
-159.56
-174.35
-232.03
-187.35
-235.86
-194.42
-287.99
-301.83
-294.73
-299.22
-264.04
-287.82
-293.06
-364.25
-329.82
-307.75
-346.45
-333.65
-388.64
-386.05
-384.6
-375.78
-377.64
-388.8
-398.02
-476.02
-464.17
-432.33
-461.15
-423.98
-518.68
-518.9
-514.38
-508.65
-523.26
-450.33
-527.22
-448.59
-545.99
-513.31
-484.58
-538.23
-473.18
-517.9
-449.45
-459.95
-446.97
-526.84
-474.17
-454.82
-509.27
-429.77
-473.77
-475.69
-509.86
-469.61
-448.05
-479.66
-446.1
-455.6
-464.02
-397.23
-386.88
-367.32
-375.88
-374.38
-359.55
-338.32
-316.51
-349.14
-355.54
-306.2
-293.04
-329.59
-274.73
-265.86
-209
-228.44
-267.33
-250.58
-188.3
-176.31
-207.15
-167.25
-130.91
-165.76
-135.54
-79.7
-62.59
-31.27
-51.06
-64.43
-26.76
-18.71
-39.15
-23.31
28.74
40.76
114.23
80.69
67.58
73.96
116.55
101.18
183.55
172.43
145.12
152.54
246.82
269.54
252.76
287.66
296.23
256.28
340.02
320.35
353.95
297.29
376.71
355.01
369.85
322.65
368.14
377.27
426.85
425.57
419.48
382.82
448.43
415.96
399.69
480.49
418.63
425.65
426.88
494.14
498.27
500
463.27
480.45
471.52
483.75
506.78
519.65
532.46
506.02
450.2
503.04
475.44
471.98
541.18
465.06
464.47
462.25
497.32
443.11
518.95
517.45
469.23
494.32
477.16
401.23
419.25
454.9
445.52
368.99
421.78
365.4
378.98
376.35
383.15
402.43
365.79
349.95
347.54
358.62
319.7
1794.75
312.28
256.44
268.9
189.9
193.3
198.2
175.4
179.02
173.5
125.04
135.5
77.89
100.32
94.84
55.63
39.76
100.31
10.06
-8.48
2.62
2.8
-57.14
-24.93
-14.15
-41.53
-115.39
-113.95
-112.37
-105.8
-134.87
-202.15
-157.61
-149.46
-169.5
-233.65
-205.87
-276.88
-286.71
-281.13
-313.34
-315.89
-311.06
-320.03
-278.99
-288.3
-310.29
-366.63
-394.69
-360.68
-377.41
-445.98
-417.62
-390.69
-449.35
-468.1
-433.05
-487.19
-441.06
-409.52
-470.66
-511.72
-469.68
-502.16
-485.77
-527.82
-448.98
-483.89
-538.94
-508.87
-497.28
-523.73
-538.92
-491.24
-474.53
-523.45
-508.38
-460.89
-527.6
-511.15
-508.32
-530.27
-513.69
-440.5
-460.82
-455.2
-488.94
-444.91
-461.6
-400.5
-385.11
-420.43
-428.72
-401.33
-448.42
-355.84
-407.79
-337.36
-310.33
-335.09
-305.56
-346.07
-276.7
-335.92
-278.85
-324.95
-245.99
-243.17
-282.98
-275.18
-226.86
-239.02
-200.97
-183.05
-163.13
-115.65
-164.34
-84.66
-120.84
-89.77
-61.64
-8.25
-68.82
-36.69
-47.35
42.01
-1.99
78.06
7.52
70.16
43.55
110.83
100.86
104.11
150.87
195.82
187.96
221.97
213.1
242.13
265.71
258.58
283.13
231.54
292.56
251.38
287.04
359.63
299.7
345.22
298.47
362
343.02
340.02
421.96
396.78
366.58
413.12
372.56
472.65
452
452.33
423.27
481.26
426
490.2
498.28
1955.66
475.19
496.7
455.63
511.59
471.92
502.99
475.12
513.97
465.21
502.63
497.41
510.26
478.25
482.65
543.37
469.35