-449.41
-512.43
-521.09
-484.15
-500.07
-522.76
-494.87
-529.16
-478.69
-548.38
-539.02
-539.22
-461.81
-528.47
-522.27
-515.45
-516.77
-474.45
-481.48
-467.88
-426.28
-448.68
-402.14
-409.55
-473.96
-392.6
-373.24
-389.99
-434.2
-346.72
-417.07
-337.02
-393.12
-336.92
-344.1
-339.89
-279.72
-331.6
-253.87
-322.96
-243.91
-258.77
-293.87
-211.93
-236.3
-170.81
-174.92
-137
-192.51
-124.52
-114.05
-105.62
-118.11
-134.39
-89.12
-106.73
-28.09
-69.78
-70.08
-9.29
1515.8
59.91
77.34
19.47
85.78
128.22
76.61
146.46
151.25
131.18
166.79
134.84
145.4
232.28
259.39
252.95
259.06
287.88
288.15
242.74
329.61
324.74
343.73
281.63
317.3
356.52
328.12
368.84
368.29
434.94
419.15
447.92
408.43
446.61
430.09
483.56
406.65
420.86
480.72
508.45
511.08
430.87
512.53
516.68
498.77
525.41
480.98
529.56
470.4
503.56
495.41
513.47
467.06
502.89
511.79
519.71
465.72
499.35
471.16
469.99
469.93
461.86
452.7
427.39
512.88
454.81
479.02
423.47
471.82
433.98
462.55
439.39
377.16
382.7
403.44
329.94
352.61
343.62
383.32
345.96
366.34
276.13
349.94
272.83
302.98
228.29
248.41
255.79
240.19
174.7
204.66
143.46
174.81
192.62
92.39
134.54
140.52
90.56
100.15
67.74
98.32
78.98
20.89
-30.83
-1.36
-66.8
-79.06
-70.76
-30.25
-54.33
-129.11
-63.54
-97.63
-191.17
-151.67
-149.78
-232.74
-185.79
-170.11
-199.46
-224.01
-206.46
-310.57
-253.64
-286.8
-285.97
-310.52
-313.5
-334.51
-389.82
-395.04
-360.51
-329.55
-403.77
-392.19
-426.13
-426.15
-461.2
-414.41
-454.63
-449.1
-478.61
-494.97
-499.14
-423.11
-470.09
-439.94
-530.2
-496.3
-475.3
-498.91
-498.15
-489.48
-455.17
-482.05
-480.7
-470.25
-535.46
-534.25
-534.16
-463.07
-538.6
-443.74
-502
-511.54
-493.78
1073.9
-491.8
-456.42
-447.64
-411.47
-416.16
-482.24
-383.58
-406.77
-422
-403.23
-369.69
-341.98
-357.13
-406.64
-346.33
-385.83
-363.19
-306.38
-353.62
-334.52
-277.57
-231.66
-311.17
-236.19
-286.24
-193.73
-216.46
-180.95
-150.51
-210.44
-117.08
-170.51
-119.34
-150.19
-73.1
-82.54
-65.51
-97.34
-8.34
-32.14
-44.49
-12.1
64.17
66.11
3.94
91.41
47.27
121.78
65.28
137.51
183.64
138.11
159.32
153.47
147.77
171.84
243.52
262.13
269.5
311.49
320.56
331.35
258.21
357.69
364.7
308.6
331.81
361.44
332.65
333.5
394.52
362.4
432.12
441.94
387.59
398.48
453.06
453.14
493.09
465.34
420.88
463.63
490.13
448.68
453.81
453.24
473.85
445.31
519.05
467.26
523
504.38
507.23
494.17
461.45
462.1
498.29
533.29
517.12
445.59
533.61
533.9
500.03
446.46
433.8
429.48
499.98
476.23
416.98
443.69
462.56
430.1
373.29
391.72
445.59
353.18
365.1
408.24
362.57
338
311.32
279.27
305.22
336.78
336.39
266.52
251.38
302.92
269.02
252.62
235.5
177.62
165.78
172.53
134.86
184.24
118.85
151.97
101.32
125.5
27.63
32.43
92.56
19.7
11.78
2.72
-53.49
-69.52
-93.15
-81.49
-98.87
-81.27
-91.31
-153.8
-121.87
-191.77
-201.68
-193.86
-211.2
-245.78
-237.28
-253.25
-271.27
-237.7
-293.13
-236.22
1201.85
-312.21
-301.21
-381.9
-327.5
-381.97
-350.85
-366.32
-347.68
-425.99
-367.95
-397.38
-465.69
-442.71
-474.6
-427.49
-454.8
-505.98
-462.72
-509
-444.54
-497.63
-517.7
-514.68
-443.86
-489.21
-484.87
-456.16
-518.41
-463.48
-492.69
-541.46
-496.16
-496.57
-457.32
-516.27
-522.68
-466.29
-463.89
-489.2
-454.64
-522.47
-511.31
-422.82
-473.96
-417.94
-410.9
-480.64
-449.9
-380.93
-377.41
-445.59
-427.99
-374.93
-433.54
-379.94
-395.06
-346.25
-373.93
-311.75
-274.64
-275.54
-321.3
-267.12
-306.83
-235.86
-284
-222.8
-248.5
-230.63
-225.16
-159.8
-168.71
-110.6
-171.74
-147.55
-55.25
-138.2
-74.4
-105.31
-31.18
-41.39
23.88
-18.15
26.44
39.3
29.91
64.27
94.12
126.8
91.05
155.55
110.74
189.54
118.35
162.27
152.32
203.62
203.69
242.7
239.58
272.65
306.15
253.75
288.33
315.86
344.73
331.81
388.85
320.65
392.53
404.13
405.64
405.81
403.21
436.76
442.97
456.98
464.49
430.56
462.3
408.38
504.26
508.08
475.32
496.32
530.28
494.54
473.3
449.55
495.63
532.84
491.52
532.24
462.31
512.59
485.89
469.45
492.89
458.86
530.24
498.03
513.37
464.72
453.85
430.46
461.58
443.56
504.55
503.66
438.16
461.78
478.6
421.05
443.44
376.36
365.38
400.62
433.92
330.15
331.88
345.05
375.59
348.14
334.68
342.47
288.94
1804.25
304.34
281.76
268.5
263.68
239.69
235.09
228.51
228.83
195.05
108.48
87.45
79.33
104.86
50.55
75.39
42.26
2.82
38.39
8.33
46.37
-54.8
-44.14
-34.34
-76.68
-37.39
-48.53
-63.68
-109.19
-106.53
-142.38
-209.41
-209.78
-185.8
-246.73
-197.01
-197.98
-255.99
-237.77
-265.49
-292.12
-249.21
-289.01
-293.93
-359.48
-363.51
-301.35
-408.41
-416.13
-348.7
-420.05
-407.01
-423.52
-462.11
-402.74
-450.77
-466.9
-410.44
-405.59
-455.73
-450.34
-448.71
-433.77
-510.43
-528.14
-509.92
-461.74
-475.86
-527.87
-510.59
-525.29
-488.15
-545.36
-528.15
-535.49
-533.66
-482.39
-511.08
-453.13
-476.69
-534.48
-507.55
-444.34
-455.58
-442.77
-476.99
-476.52
-429.26
-408.89
-391.72
-479.75
-425.37
-460.29
-411.07
-346.87
-396.94
-329.81
-385.03
-321.76
-333.08
-300.13
-343.73
-356.11
-252.37
-330.62
-307.51
-263.74
-288.06
-228.67
-233.63
-239.47
-214.62
-203.59
-168.59
-180.36
-132.96
-159.38
-134.61
-92.48
-83.39
-46.73
-9.24
-28.6
-52.51
40.97
55.63
3.94
88.26
60.78
70.46
127.8
55
115.63
117.43
105.23
172.91
138.39
170.26
209.33
227.68
190.14
236.29
222.09
292.37
268.24
283.28
268.22
357.72
364.63
356.47
343.84
322.04
412.93
418.25
429.41
432.18
443.82
388.63
462.67
445.69
475.82
408.54
471.68
418.02
437.17
499.84
476.42
529.07
439.4
507.57
465.06
470.02
498.34
449.38
496.17
480.5
517
496.08
474.81
534.92
519.88
498.93
484.16
460.77
449.84
452.69
494.71
519.44
501.14
488.91
429.95
441.46
457.49
455.33
469.91
464.81
382.36
380.4
432.49
395.42
422.27
344.91
320.6
309.79
362.56
353.37
280.84
277.91
323.33
257.81
285.27
243.23
285.57
193.2
186.36
203.56
143.57
161.28
156.12
103.1
159.44
148.95
142.15
85.77
39.1
51.79
-8.74
-19.03
31.31
-46.62
-11.13
-14.88
-84.05
-96.46
-38.52
-123.72
-80.73
-166.86
-178.4
-127.73
-124.51
-163.87
-240.37
-204.56
-215.85
-244.32
-297.28
-271.82
-239.78
-307.5
-328.66
-288.2
-333.81
-291.79
-303.33
-385
-340.76
-379.04
-408.39
-417.07
-377.54
-457.71
-379.47
-381.91
-471.6
-402.83
-492.31
-497.59
-471.03
-509.42
-496.95
-503.46
-494.92
-467.91
-513.17
-464.51
-525.05
-546.86
-458.77
-503.68
-529.44
-520.22
-507.35
-454.4
-457.34
-481.02
-497.23
-529.9
-499.7
-493.01
-482.97
-445.47
-430.49
-469.45
-504.53
-446.4
-404.07
-448.75
-426.04
-396.54
-375.12
-390.25
-385.04
-348.35
-331.67
-404.53
-361.99
-346.7
-350.57
-349.78
-301.38
-342.84
-302.35
-239.65
-251.34
-208.97
-271.42
-264.83
-220.27
-187.91
-197.13
-150.18
-181.41
-150.41
-99.21
-78.72
-77.53
-108.02
-105.99
-80.49
-16.61
-23.25
-25.86
1492.45
25.48
-5.31
71.18
17
62.34
46.75
153.48
111.99
102.83
167.55
125.65
183.63
244.82
223.17
256.22
201.39
298.74
288.12
249.95
336.48
266.71
342.56
373.19
315.78
377.57
395.67
330.12
335.86
384.93
433.5
446.56
458.92
436.92
443.95
406.57
439.93
440.1
433.6
473.97
466.28
458.79
460.31
437.82
503.51
478.76
494.82
499.76
496.63
452.15
504.27
506.17
479.38
500.94
465.48
461.6
455.46
491.76
480.56
498.17
444.62
454.42
480.63
450.85
461.81
465.22
443.73
486.22
401.19
452.84
421.19
399.24
426.58
429.95
383.43
421.07
350.27
378.24
389.71
295.93
332.51
347.14
268.22
319.37
316.65
219.79
236.97
263.36
239.73
254.64
210.03
230.77
183.59
197.68
173.22
157.03
103.9
60.83
119.06
33.41
92.11
22.71
40.93
23.64
26.27
-52.76
3.8
-47.2
-59.24
-28.71
-88.77
-121.73
-91.35
-91.17
-196.85
-214.87
-200.12
-160.66
-178.68
-219.87
-261.72
-277.41
-242.92
-234.64
-235.86
-319.03
-304.84
-312.28
-339.57
-323.08
-365.8
-316.57
-366.44
-356.09
-354.1
-416.29
-461.83
-447.43
-407.92
-457.79
-424.38
-488.57
-407.39
-468.71
-498.23
-475.62
-445.09
-473.92
-451.48
-524
-507.59
-457.54
-494.42
-475.29
-479.22
-451.57
-524.43
-525.38
-511.75
-475.84
-540.66
-487.11
-526.24
-467.44
-498.9
-514.83
-469.14
1014.2
-441.99
-510.47
-441.84
-404.15
-416.56
-404.3
-452.14
-467.29
-441.76
-430.52
-442.32
-431.56
-390.31
-364.09
-385.86
-340.55
-314.68
-362.56
-307.98
-287.82
-333.22
-287.31
-297.18
-239.49
-249.13
-189.11
-229.29
-156.97
-184.18
-210.03
-126.12
-165.14
-72.86
-58.65
-116.53
-73.54
-56.25
-31.47
-34.79
2.61
-35.36
-18.45
59
89.52
54.58
120.79
42.48
115.63
115.89
181.79
124.64
172.01
197.74
175.23
156.64
170.5
184.09
236.22
210.13
222.04
284.31
310.76
296.78
301.58
303.1
321.61
371.28
388.72
327.43
380.35
391.1
452.26
396.95
437.58
477.13
415.29
413.97
420.2
421.27
467.72
443.78
427.01
500.17
479.84
447.57
522.73
459.94
506.03
515.7
482.24
459.73
543.64
453.72
540.51
468.67
478.76
495.32
474.22
465.06
459.6
515.91
529.49
432.22
520.68
470.93
509.89
460.63
422.16
428
480.44
450.47
425.19
390.97
362.7
437.91
399.36
386.24
398.75
311.98
316.74
320.17
273.95
352.19
259.53
241.95
245.93
281.24
223.77
215.15
198.23
171.16
179.95
178.76
126.29
123.62
177.59
130.72
64.25
121.65
57.86
61.9
46.39
50.22
48.91
50.27
-9.51
-5.79
-56.5
-43.09
-80.47
-49.31
-109.12
-131.69
-145.21
-173.36
-132.28
-175.23
-224.44
-250.65
-175.61
-250.27
-280.03
-305.9
-246.02
-325.82
-303.74
-264.81
-290.62
-372.84
-309.38
-328.28
-400.97
-366.1
-421.17
-417.92
-443.27
-393.69
-412.13
-426.01
-403.14
-426.84
-398.27
-471.89
-428.29
-457.02
-461.34
-499.89
-446.52
-437.36
-488.82
-514.25
-472.23
-477.44
-514.53
-513.5
-517.09
-543.92
-474.14
-510.96
-485.53
-483.91
-530.28
-524.57
-491.23
-523.43
-484.18
-513.15
-459.83
-516.93
-478.15
-458.93
-494.1
-430.06
-424.69
-405.79
-415.91
-416.46
-418.49
-371.39
-358.36
-378.15
-389.95
-320.29
-387.37
-369.12
-303.02
-316.94
-313.73
-247.91
-307.09
-225.05
-276.01
-239.24
-184.25
-162.47
-165.64
-171.96
-144.24
-175.77
-181.02
-161.31
-144.2
-98.04
-80.8
-38.22
-35.66
-59.17
-31.68
-34.1
-26.78
28.35
78.64
72.12
97.5
83.01
76.55
141.98
168.98
107.47
181.92
200.2
225.33
244.49
219.52
198.47
243.16
287.04
242.29
270.07
287.05
317.65
322.92
295.66
382.75
318.16
311.15
332.18
386.1
427.44
438.85
368.92
388.85
463.83
476.36
416.35
476.97
431.91
419.16
490.47
493.81
510.38
455.07
481.89
478.06
524.85
445.24
495.35
516.81
480.09
511.63
501.9
496.64
537.93
498.74
501.88
450.29
501.94
442.32
459.94
513.01
489.1
491.64
454.91
505.34
412.03
438.52
476.03
410.14
386.22
406.82
391.05
421.1
350.9
431.43
360.65
375.08
325.56
395.25
380.21
365.47
354.39
309.86
1824.63
243.85
278.23
281.08
229.92
209.41
204.32
225
143.14
159.1
204.1
105.2
156.24
104.17
145.9
124.55
36.03
75.58
2.27
68.57
11.2
-7.95
-23.17
-4.87
-77.4
-23.85
-101.69
-72.11
-119.04
-93.5
-124.05
-151.26
-123.49
-204.89
-239.38
-234.39
-210.75
-271.18
-285.68
-249.35
-235.01
-263.24
-257.69
-350.49
-298.57
-303.44
-389.26
-342.09
-323.34
-329.01
-346.04
-371.09
-431.22
-376.25
-404.81
-460.43
-460.1
-495.02
-483.4
-432.69
-463.67
-479.36
-438.96
-481.55
-500.74
-536.42
-527.91
-460.75
-543
-531.15
-495.38
-452.96
-520.8
-451.72
-453.03
-516.74
-524.37
-535.13
-478.39
-466.34
-525.1
-477.77
-472.89
-463.03
-517.36
-478.46
-484.51
-446.45
-442.59
-408
-409.03
-444.23
-371.14
-451.11
-360.47
-398.84
-407.23
-404.33
-407.91
-326.17
-295.75
-323.2
-352
-316.71
-282.23
-294.13
-242.46
-214.42
-248.47
-256.25
-260.9
-236.13
-202.93
-182.04
-150.5
-190.04
-85.59
-148.78
-117.64
-84.07
-59.85
-64.36
-11.66
-49.33
-1.8
-9.75
46.36
-4.67
16.9
114.27
123.93
81.25
152.34
84.86
140.75
131.49
197.15
145.83
181.48
181.96
196.86
278.53
270.05
243.69
281.75
297.19
316.55
268.25
365.67
302.4
338.44
354.17
328.75
329.56
402.35
436.18
449.85
391.99
444.15
410.18
441.88
491
448.63
486.24
476.08
500.3
509.65
2012.33
494.03
462.1
488.19
469.32
471.22
461.73
477.21
543.33
469.72
528.33
515.87
544.38
474.17
510.56
508.77
522.82
471.74
527.23
485.65
438.44
474.61
450.18
485.72
477.11
482.39
411.68
438.39
460.62
375.62
401.78
352.58
433.44
341
384.85
362.42
394.99
348.1
319.15
343.36
336.01
320.32
290.65
243.17
215.87
221.11
229.22
185.58
187.01
150.65
206.31
142.97
111.6
128.37
137.42
55.43
132.28
77.56
47.8
63.13
76.27
-33.98
6.31
30.32
-2.89
-18.96
-36.18
-48.38
-111.45
-65.29
-89.35
-118.17
-184.66
-187.57
-166.2
-202.66
-162.24
-240.38
-219.66
-222.27
-210.53
-312.28
-245.4
-294.56
-297.53
-352.35
-289.37
-350.4
-343.89
-401.16
-418.08
-395.33
-355.59
-429.31
-446.84
-393.85
-465.55
-447.46
-437.45
-410.64
-482.22
-482.65
-478.03
-443.22
-454.67
-486.27
-496.21
-460.15
-471.88
-513.16
-452.5
-510.39
-466.84
-450.46
-529.43
-468.17
-519.89
-477.48
-490.92
-543.5
-522.86
-527.34
-517.65
-444.19
-507.15
-495.85
-435.32
-435.41
-492.21
-479.3
-414.63
-410.14
-414.42
-436.71
-370.97
-395.1
-373.9
-383.83
-397.12
-392.94
-327.49
-385.41
-296.89
-299.05
-285.08
-276.75
-242.77
-316.3
-254.41
-288.71
-269.73
-231.85
-185.98
-163.56
-143.38
-206.6
-184.43
-89.89
-143.9
-113.84
-68
-48.04
-75.02
-33.88
-61.7
-2.04
-41.12
17.76
32.1
35.54
96.95
90.01
118.91
139.86
139.07
135.41
103.24
165.11
129.36
150.49
247.26
175.62
193.59
259.59
287.01
284.29
285.8
280.13
283.48
310.27
328.7
388.46
308.61
361.86
388.21
430.13
369.07
436.41
372.08
404.89
442.62
471.49
482.65
475.59
418.81
476.51
468.24
460.45
435.96
513.4
495.58
484.86
456.92
452.42
488.2
471.68
469.26
450.9
465.06
538.13
511.23
537.35
486.84
464.85
520.58
506.16
535.14
443.03
432.93
432.57
486.6
431.26
433.7
458.22
492.49
455.51
461.88
384.83
378.29
422.45
432.73
432.95
410.05
378.19
365.7
362.45
363.75
284.31
350.28
285.46
249.27
267.46
287.36
233.56
218.67
239.59
158.76
173.29
178.78
131.8
123.04
160.19
97.79
149.96
77.1
68.24
30
72.36
4.72
-21.89
-37.46
-47.38
-65.04
-21.31
-83.48
-44.14
-134.46
-79.3
-97.93
-104.44
-151.01
-194.33
-176.73
-183.67
-208.03
-177.9
-182.48
-242.91
-214.56
-289.78
-273.24
-284.44
-283.63
-352.93
-295.35
-303.31
-383.07
-351.59
-399.42
-348.56
-387.43
-384.26
-455.14
-428.56
-400.42
-449.43
-426.26
-473.46
-473.44
-413.64
-419.27
-428.73
-471.36
-463.03
-439.92
-470.93
-478.93
-502.74
-499.57
-494.47
-510.48
-476.97
-477.18
-540.22
-455.76
-463.5
-511.54
-457.17
-461.56
-441.44
-533.39
-492.01
-436.89
1047.31
-477.88
-473.97
-493.77
-402.9
-403.25
-447.6
-416.93
-401.21
-415.44
-414.29
-411.77
-433.94
-336.67
-329.36
-392.38
-348.19
-297.72
-357.21
-269.79
-346.04
-281.24
-268.35
-258.69
-264.57
-194.83
-212.49
-174.2
-215.77
-177.98
-121.19
-163.21
-129.7
-166.36
-82.68
-47.4
-128.14
-64.07
-61.84
-57.61
-23.49
35.44
-15.14
24.69
-3.69
99.25
112.75
100.66
114.25
101.02
158.69
95.04
156.32
154.16
162.46
239.13
244.3
188.55
270.15
299.75
243.42
318.4
337.27
339.69
329.09
307.73
295.9
361.28
371.61
342.58
429.25
389.7
430.87
449.75
450.95
458.26
430.93
440.75
469.66
422.84
496.95
426.04
488.8
503.29
436.81
519.69
489.06
523.56
465.36
450.43
521.33
461.78
488.39
534.54
492.6
523.36
499.98
460.08
481.97
529.82
477.96
472.19
451.02
484.86
432.37
470.86
469.9
453.25
441.31
474.22
404.4
419.36
401.8
396.52
442.19
433.79
353.38
356.84
349.61
370.74
346.5
296.21
322.58
310.77
265.67
311.01
324.78
235.37
234.26
193.63
233.83
203.87
224.06
201.11
192.24
161.81
170.48
142.81
138.24
130.24
121.26
41.73
84.37
25.36
69.45
4.27
-4.93
-59.31
-53.71
-37.33
-30.79
-125.78
-109.89
-144.75
-175.81
-96.55
-190.97
-181.4
-174.38
-214.25
-216.59
-256.67
-252.85
-239.22
-222.22
-269.12
-259.07
1216.72
-308.01
-361.25
-318.73
-337.34
-323.88
-356.65
-400.49
-349.85
-369.59
-436.12
-445.95
-409.67
-428.42
-460.9
-477.94
-459.35
-480.85
-426.92
-435.71
-498.42
-470.47
-522.39
-492.72
-481.85
-490.57
-540.39
-461.45
-467.43
-512.46
-522.49
-510.26
-511.68
-539.66
-483.81
-505.05
-485.51
-462.28
-464.26
-460.95
-521.58
-426.87
-428.43
-470.58
-467.7
-451.25
-416.52
-402.32
-443.71
-424.51
-392.13
-454.25
-379.19
-423.93
-330.51
-357.62
-337.63
-305.65
-367.25
-289.89
-328.71
-336.69
-307.93
-265.61
-240.91
-266.82
-259.33
-189.91
-244.63
-155.37
-167.54
-157.28
-182.82
-179.16
-79.67
-137.72
-148.41
-67.15
-84.54
-34.74
-85.56
-31.01
-30.47
-24.2
61.75
-13.55
92.08
20.16
80.85
119.18
73.45
127.05
92.82
148.17
214.79
165.42
173.37
230.88
180.61
246.2
210.49
261.77
316.79
314.91
275.15
319.82
346.01
357.67
336.65
353.26
394.53
343.25
369.79
387.59
453.37
422.46
467.25
476.02
450.96
468.81
437.83
461.85
449.56
503.26
461.91
445.1
531.94
483.41
517.02
455.02
532.85
458.94
545.85
500.64
502.07
457.8
449.91
502.63
479.72
479.46
452.52
462.94
482.69
448.61
491.55
512.74
488.82
503.5
471.88
440.62
456.77
484.57
400.13
379.89
398.09
363.16
388.37
418.29
378.13
363.61
364.91
377.12
321.4
362.32
351.63
304.59
295.91
234.25
290.15
290.18
267.63
201.73
174.72
196.08
196.22
129.53
141.28
194.16
138.72
134.27
97.45
84.39
57.19
11.47
3.19
20.48
19.6
4.9
-57.64
-15.33
-58.91
-77.78
-48.36
-82.86
-109.14
-106.68
-120.12
-147.92
-191.36
-158.27
-229.76
-236.71
-207.22
-268.13
-213
-223.67
-273
-296.02
-254
-310.29
-274.56
-312.5
-326.07
-347.83
-319.04
-358.15
-355.39
-441.25
-421.5
-408.51
-446.31
-383.23
-467.61
-477.77
-409.02
-470.41
-424.93
-424.53
-480.94
-515.67
-433.56
-528.51
-504.29
-473.08
-486.25
-497.21
-534.49
-498.18
-512.01
-464.75
-534.02
-513.7
-518.95
-463.85
-544.04
-470.52
-441.32
-507.2
-521.79
-475.36
-519.4
-433.47
-486.24
-478
-488.65
-441.77
-456.86
-410.14
-430.42
-442.7
-380.54
-429.02
-344.28
-408.57
-408.05
-344.1
-324.83
-341.42
-344.3
-331.55
-341.91
-247.56
-278.63
-225.83
-278.8
-226.06
-246.9
-168.91
-182.51
-163.13
-135.03
-105.33
-155.71
-135.52
-83.05
-96.88
-56.47
-64.87
-65.68
-45.7
-41.11
16.63
23.05
74.5
94.07
58.54
120.82
113.1
121.86
84.91
128.21
136.67
149.5
171.81
233.06
178.79
191.93
199.7
261
282.35
302.04
305.94
341.83
292.46
305.95
346.39
344.06
346.14
351.26
327.99
370.14
398.8
354.55
395.82
397.97
447.85
431.05
440.79
409.68
489.47
500.69
452.25
459.19
2018.67
513.91
509.71
473.51
487.61
446.01
488.49
509.21
469.4
501.59
519.83
474.13
486.4
535.24
461.44
541.49
515.8
440.26
487.68
498.4
440.26
500.32
496.9
487.8
415.83
478.55
408.62
391.9
426.09
421.49
441.65
420.21
352.4
363.44
383.07
373.43
308.74
324.66
344.01
349.3
357
272.75
278.91
322.78
266.77
200.86
264.73
184.93
245.4
186.8
222.38
181.19
197.46
146.81
72.69
119.44
132.6
31.17
81.8
90.47
34.86
40.54
24.36
-42.26
-60.71
-58.52
-64.89
-65
-69.15
-75.23
-103.96
-87.41
-122.28
-180.47
-174.82
-237.94
-233.47
-197.44
-223.7
-221.53
-267.85
-232.89
-259.37
-311.76
-301.44
-356.66
-306.28
-307.2
-372.16
-398.33
-404.61
-349.57
-390.7
-425.06
-430.99
-443.87
-385.18
-480.16
-464.8
-425.19
-502.79
-494.22
-479.2
-456.44
-467.36
-499.15
-474.97
-481.05
-472.36
-514.95
-460.24
-515.43
-452.21
-461.14
-510.11
-545.64
-481.57
-527.54
-451.2
-515.11
-526.11
-464.13
-516.33
-476.21
-516.28
-515.49
-515.95
-423.24
-420.85
-431.68
-459.75
-402.18
-384.07
-463.92
-406.51
-408.87
-401.72
-406.02
-411.32
-355.45
-330.21
-381.12
-296.46
-306.14
-264.73
-324.22
-317.17
-280.38
-286.41
-217
-206.27
-210.21
-177.92
-153.68
-151.74
-194.4
-171.51
-155.77
-128.39
-136.7
-68.04
-129.3
-103.76
-94.19
-21.62
-26.83
18.49
1502.81
48.1
88.01
64.36
23.74
131.79
118.79
136.95
141.08
116.69
135.31
182.36
161
166.88
250.38
252.66
194.2
216.15
249.59
253.5
316.29
336.71
356.84
308.49
368.16
392.32
397.63
333.03
401.55
414.68
446.06
420.33
440.99
382.08
467.26
420.52
400.12
469.43
421.84
475.5
463.81
454.52
484.33
523.03
438.63
466.77
512.9
457.48
501.22
487.36
471.28
537.91
527.42
521
517.5
477.72
501.51
483.63
458.37
446.03
500.3
522.83
436.02
448.49
415.64
503.81
467.59
418.84
472.33
432.05
461.08
392.48
415.89
424.32
382.95
415.02
367.71
387.54
386.53
363.32
326.63
358.53
262.53
243.84
229.54
260.84
275.32
259.91
268.09
234.59
222.4
161.96
199.32
140.45
101.9
169.67
79.24
139.64
35.44
65.72
19.18
57.65
11.6
32.42
-12.01
-33.71
0.25
-54.12
-48.91
-44.95
-64.72
-131.81
-104.64
-104.34
-195.44
-148.97
-208.29
-230.29
-190.53
-259.5
-233.49
-219.58
-270.51
-292.39
-265.87
-342.16
-348.08
-372.36
-327.92
-346.53
-346.97
-349.65
-426.48
-400.94
-419.92
-388.69
-397.12
-402.16
-407.73
-450.68
-399.58
-433.77
-441.52
-453.87
-487.85
-460.61
-433.1
-476.12
-452.55
-473.85
-451.78
-471.58
-508.68
-465.98
-505.98
-540.34
-510.18
-525.6
-480.45
-478.53
-535.01
-473.58
-498.35
-471.44
-523.67
-526.26
-503.18
-501.09
-476.59
-451.89
-458.49
-461.48
-438.34
-406.56
-419.89
-379.73
-383.29
-432.89
-369.25
-364.08
-385.24
-312
-388.11
-327.05
-291.91
-305.16
-269.44
-310.96
-298.94
-276.21
-263.43
-269.47
-209.34
-165.8
-232.37
-137.16
-197.63
-181.88
-144.66
-85.46
-129.65
-54.39
-49.02
-110.56
-26.8
-81.72
-29.85
38.51
43.56
-27.85
51.14
45.61
106.04
41.35
126.36
144.19
101.29
176.67
164.58
127.64
180.7
179.31
205.3
203.43
187.66
264.5
303.94
285.98
326.41
311.39
268.31
319.86
381.84
336.74
350.14
335.07
344.17
435.1
398.64
360.04
408.45
424.82
440.91
483.14
461.79
462
419.13
416.33
518.59
516.59
462.46
524.25
517.45
525.95
459.36
514.55
540.97
465.56
503.92
506.24
482.62
479.71
520.85
472.34
480.91
535.91
502.72
505.17
461.28
488.64
452.02
458.64
449.8
454.02
444.57
452.08
392.83
411.6
396.29
449.47
390.1
368.04
348.16
350.31
338.44
350.19
393.9
388.88
285.42
284.58
277.16
250.7
302.57
281.31
262.28
256.24
184.06
260.99
212.77
229.41
179.94
188.65
148.33
85.74
70.99
136.58
107.83
27.7
8.54
30.66
33.55
-19.22
-39.59
-51.09
0.72
-78.89
-38.22
-110.69
-53.02
-109.19
-121.21
-183.68
-115.88
-169.91
-192.09
-237.29
-185.22
-266.04
-194.29
-200.72
-214.02
-323.04
-314.84
1244.03
-350.65
-350.14
-301.59
-327.63
-372.31
-399.61
-336.61
-343.09
-382.62
-451.5
-439.71
-383.42
-426.09
-445.67
-413.62
-426.42
-474.48
-461.51
-434.49
-448.57
-523.38
-522.5
-504.5
-465.47
-531.98
-469.92
-474.78
-489.89
-537.98
-467.13
-465.92
-458.89
-472.57
-508.8
-459.47
-466.91
-499.69
-518.49
-442.59
-451.23
-509.13
-424.8
-505.14
-468.68
-467.61
-432.81
-430.8
-466.37
-427.73
-443.8
-459.91
-373.38
-438.4
-413.44
-357.15
-412.41
-390.17
-322.56
-333.95
-324.85
-280.96
-302.66
-329.26
-304.52
-257.12
-204
-240.63
-199.76
-164.46
-223.84
-201.76
-131.71
-169.65
-133.35
-97.78
-110.25
-71.88
-103.57
-74.94
-63.37
-49.03
21.07
24.44
-27.48
42.12
34.7
68.71
62.45
46.17
149.77
142.95
87.6
157.06
158.67
186.86
179.04
218.33
235.21
217.67
230.8
280.96
240.27
297.99
274.5
350.09
279.37
302.11
342.63
367.18
317
422.05
353.53
358.35
410.84
423.7
457.4
472.66
421.98
489.43
480.32
457.09
467.37
489.7
456.9
456.35
464.18
439.98
460.84
526.7
481.05
523.27
518.85
474.61
467.01
483.71
524
509.66
489.71
517.67
459.46
514.35
495.12
522.74
475.34
454.05
517.34
513.76
432.34
486.43
425.62
492.87
440.2
389.49
431.61
365.02
433.88
354.79
421.56
399.52
390.31
325.17
368.41
352.48
271.82
322.66
327.82
1832.57
227.66
281.45
202.44
195.33
208.93
196.12
241.59
222.03
153.35
139.58
112.33
166.43
71.8
92
52.47
17.05
21.13
81.98
64.22
-25.73
-6.33
-12.44
-40.21
-10.74
-43.03
-79.59
-137.59
-67.63
-177.98
-166.39
-159.75
-211.19
-224.28
-190
-242.19
-194.89
-272.67
-260.36
-311.53
-287.56
-269.83
-277.97
-367.53
-361.81
-350.23
-345.45
-316.37
-361.98
-428.1
-423.39
-416.57
-451.71
-368.38
-409.36
-478.72
-396.61
-476.35
-424.51
-503.1
-463.23
-465.21
-436.53
-457.98
-469.2
-453.25
-483.87
-484.42
-529.11
-469.04
-503.76
-520.96
-541.56
-475.72
-454.97
-471.07
-490.86
-511.79
-451.76
-539.62
-449.62
-518.18
-474.04
-513.79
-424.12
-473.83
-420.14
-422.93
-451.15
-396.66
-417.67
-393.88
-424.33
-383.02
-438.92
-401.23
-373.18
-332.12
-362.94
-376.6
-339.03
-360.6
-296.31
-285.64
-277.67
-237.36
-293.43
-294.05
-275.72
-183.05
-228.1
-206.45
-164.79
-170.72
-180.29
-162.01
-167.03
-158.73
-97.94
-123.2
-45.79
-56.98
-22.32
-55.8
-51.93
57.72
-8.85
83.76
5.98
77.66
126.49
115.75
136.76
127.55
114.77
171.55
153.18
143.05
170.76
208.09
261.54
236.82
235.25
295.08
278.35
254.46
278.63
329.36
351.49
342.39
315.3
343.49
339.01
365.44
398.39
430.22
445.91
419.05
381.63
406.62
486.83
458.51
407.94
449.38
448.35
469.15
468.18
479.55
500.03
507.1
495.65
463.75
530.54
486.74
507.46
501.55
536.1
485.07
526.53
524.95
504.62
509.43
471.91
511.49
475.37
447.08
450.42
489.51
432.02
487.78
464.23
429.34
478.62
433.03
409.98
385.07
434.02
444.69
424.1
353.32
387.38
345.11
374.48
318.13
386.15
342
358.05
322.87
255.56
278.59
231.16
208.91
254.92
225.55
245.87
175.5
222.9
196.93
175.11
147.19
141.94
69.81
93.38
52.49
42.23
32.25
-2.31
-3.44
-24.7
40.17
-58.34
5.11
-55.28
-88.57
-78.97
-139.01
-142.12
-105.78
-119.58
-203.53
-181.11
-173.99
-154.99
-170.07
-237.49
-250.03
-272.84
-262.66
-279.45
-295.5
-308.82
-297.73
-284.26
-338.02
-379.34
-346.16
-353.44
-398.13
-381.97
-401.72
-362.84
-424.74
-449.56
-467.42
-485.86
-397.57
-488.75
-473.2
-440.93
-463.23
-523.22
-509.85
-502.48
-481.86
-497.83
-468.79
-488.73
-475.37
-514.86
-548.53
-488.39
-499.47
-451.4
-471.28
-496.33
-525.51
-519.13
-442.68
-515.07
-435.45
-507.66
-462.7
-500.86
-468.94
-449.6
-420.55
-435.41
-458.33
-384.15
-406.03
-431.19
-398.12
-420.8
-355.98
-425.59
-359.16
-388.01
-378.95
-333.13
-360.98
-294.18
-287.5
-327.57
-295.32
-238.27
-240.13
-283.35
-269.27
-213.83
-204.21
-202.63
-202.63
-156.61
-99.37
-110.93
-128.93
-62.43
-88.47
-86.5
-44.37
6.35
11.17
-15.4
1547.17
24.28
83.1
1.1
108.5
129.66
83.61
123.22
81.11
181.23
117.54
175.25
202.05
161.78
224.69
208.81
193.55
236.87
271.31
263.04
239.11
328.83
278.34
373.43
286.79
394.38
388.31
413.65
408.97
405.52
385.96
396.84
463.54
464.18
474.33
456.72
444.09
437.73
471.92
461.54
494.75
513.46
488.22
480.83
491.31
503.66
476.39
466.35
481.75
472.99
507.88
512.42
475.18
477.14
528.16
491.35
449.87
529.98
497.36
525.78
531.04
522.68
466.16
476.52
498.02
429.73
439.79
417.21
467.81
429.67
464.17
432.86
457.53
418.61
394.4
357.29
360.11
330.23
326.93
388.93
291.02
349.65
294.68
320.88
247.14
290.69
286.85
260.58
233.3
197.88
235.31
234.17
166.86
167.87
121.47
104.55
165.3
99.53
120.87
29.18
97.06
12.83
28.68
48.11
18.09
-53.98
-71.7
-32.13
-49.02
-120.29
-48.91
-79.3
-87.58
-172.51
-171.01
-166.54
-160.41
-222.21
-211.17
-259.92
-283.4
-222.15
-260.35
-233.98
-330.63
-258.01
-341.23
-304.21
-382.12
-296.99
-377.58
-413.04
-327.45
-377.15
-364.87
-367.14
-404.76
-416.44
-430.65
-442.25
-430.9
-403.05
-470.28
-452.29
-453.49
-443.21
-480.63
-511.44
-524.59
-466.44
-459.24
-525.93
-523.13
-453.49
-487.7
-520.71
-455.29
-538.27
-539.77
-521.41
-488.43
-444.46
-459.12
-498.76
-490.79
-433.81
-442.63
998.52
-472.27
-469.26
-473.34
-450.68
-478.87
-458.97
-399.19
-448.9
-438.25
-405.41
-361.4
-371.02
-358.72
-363.04
-401.87
-318.88
-362.3
-278.15
-344.64
-301.17
-249.06
-232.58
-273.42
-244.14
-245.08
-237.5
-176.26
-222.85
-181.84
-121.07
-143.52
-111.17
-112.07
-57.52
-93.87
-107.43
-33.96
-46.09
-61.81
-23.62
14.39
15.62
37.87
17.05
70.41
61.43
53.72
102.91
126.75
114.04
181.71
201.19
192.19
204.89
183.82
190.89
248.8
205.8
267.85
248.51
246.33
342.89
314.59
314.96
369.36
333.77
357.62
333.57
413.58
402.6
415.25
391.05
410.3
460.33
438.54
430.46
402.94
425.41
412.14
440.83
484.55
452.02
439.02
471.57
477.97
470.44
532.56
471.7
492.09
518.79
499.01
487.91
456.43
521.35
520.76
532.27
524.22
473.34
507.14
482.41
518.36
524.84
521.59
437.95
457.91
432.58
494.41
437.49
476.22
470.14
389.54
455.6
455.79
427.65
364.86
335.33
376.22
318.55
310
368.46
299.58
324.55
320.78
253.46
309.07
242.67
274.84
280.21
216.45
241.04
248.54
153.33
166.98
206.06
168.46
127.02
137.43
155.35
91.53
108.15
46.3
41.16
28.96
-32.21
-20.42
-29.88
-76.43
-62.99
-102.69
-26.91
-72.12
-113.05
-95.61
-114.47
-109.4
-141.25
-199.98
-197.89
-165.66
-253.09
-261.1
-200.01
-266.85
-277.13
-300.69
-324.33
-264.29
-338.88
-285.54
-303.7
-353.33
-359.19
-397.01
-340.45
-414.92
-361.73
-421.89
-443.42
-379.1
-417.49
-416.21
-474.74
-469.88
-428.12
-484.45
-427.62
-505.91
-510.04
-490.45
-514.03
-487.81
-535.85
-515.2
-452.66
-528.68
-546.45
-472.87
-509.66
-527.43
-460.87
-494.61
-525.19
-443
-491.13
-481.62
-438.22
-487.59
-460.05
-459.16
-424.95
-502.23
-492.72
-423.17
-473.36
-471.72
-406.72
-450.07
-429.85
-359.47
-378.74
-368.61
-389.37
-373.35
-311.69
-376.35
-318.11
-339.55
-340.14
-241.92
-315.75
-290.32
-292.47
-218.3
-258.3
-208.34
-210.91
-137.76
-172.71
-191.2
-139.31
-113.91
-67.26
-64.72
-101.03
-109.28
-80.57
-5.66
-11.98
31.88
45.49
21.57
-1.32
92.56
107.23
98.11
53.16
162.73
125.42
176.97
153.25
176.62
162.69
184.28
259.16
261.73
214.63
277.74
248.83
268.63
280.52
324.24
351.44
310.11
302.81
389.7
335.32
373.82
415.39
384.1
437.71
448.76
369.09
399.68
468.87
472.25
466.09
444.7
460.47
461.52
453.99
486.82
461.36
455
520.9
465.59
540.45
510.82
482.58
509.51
517.01
529.26
460.47
466.21
544.04
452.31
474.24
483.18
522.32
477.7
482.42
513.95
501.35
450.89
421.41
483.72
425.11
450.65
460.55
458.82
380.56
408.95
403.28
425.69
435.4
357.87
325.85
351.59
370.64
308.46
292.72
279.81
255.71
1798.2
317.78
275.03
223.82
228.5
215.65
246.81
232.71
209.33
207.55
134.33
115.41
149.84
68.81
48.84
60.92
38.95
35.02
22.39
34.4
-42.15
-4.19
-8.06
-71.59
-69.85
-80.59
-119.38
-142.93
-145.69
-142.66
-170.81
-173.97
-153.41
-165.15
-194.02
-165.49
-235.13
-248.67
-233.44
-250.44
-230.23
-333.73
-314.44
-333.19
-312.31
-309.08
-368.08
-332.06
-331.96
-401.44
-408
-368.73
-392.06
-460.9
-393.51
-387.55
-463.25
-410.04
-411.98
-504.57
-501.21
-467.44
-440.07
-477.48
-437.66
-485.92
-450.38
-519.98
-517.72
-463.67
-537.28
-477.97
-460.05
-476.57
-462.32
-461.84
-473.49
-477.4
-508.26
-474.45
-453.89
-462.45
-477.21
-430.37
-496.94
-456.83
-419.68
-405.68
-410.77
-421.26
-432.11
-445.65
-369.22
-368.73
-358.53
-379.07
-347.61
-369.1
-348.71
-374.23
-326.45
-339.99
-299.88
-274.37
-263.1
-246.71
-241.38
-258.83
-247.48
-271.52
-167.72
-229.02
-231.33
-144.95
-158.7
-104.64
-159.85
-141.23
-126.24
-42.84
-77.21
-93.59
-35.84
2.96
-54.02
-6.86
0.09
83.57
21.95
70.63
94.88
121.35
111.09
143.65
130.12
115.78
196.43
144.61
200.75
227.8
220.19
263.69
267.48
234.12
278.6
328.87
314.88
299.32
312.63
306.59
385.31
361.34
380.82
344.96
415.47
388.06
409.76
434.21
451.33
396.74
409.19
473.67
458.65
476.85
448
484.7
456.95
2002.38
432.91
520.76
534.09
455.96
502.32
493.13
541.16
464.15
480.72
520.25
535.1
547.02
506.97
461.36
451.21
489.12
530.08
513.95
453.96
460.15
506.14
513.24
416.47
425.89
495.56
393.46
448.49
391.85
421.25
423.01
399.66
365.16
341.31
379.27
330.52
301.64
349.37
361
355.48
264.48
278.62
272.44
241.4
240.49
278.08
213.55
234.27
204.49
182.52
160.62
180.62
157.85
178.44
75.32
141.07
120.59
117.59
89.11
73.36
15.11
-32.05
-14.63
-11.82
-52.05
-4.42
-54.38
-76.16
-97.86
-142.87
-144.13
-96.71
-197.02
-204.05
-161.37
-189.81
-230.28
-188.15
-185.88
-261.44
-261.48
-303.43
-260.38
-255.09
-301.85
-358.29
-299.66
-374.34
-319.22
-334.77
-337.06
-366.42
-428.79
-355.11
-438.23
-443.82
-390.57
-470
-419.6
-406.27
-452.96
-451.72
-507.61
-500.52
-518.12
-463.25
-530.33
-503.39
-501.23
-469.45
-502.65
-483.71
-494.77
-499.63
-518.92
-505.16
-530.51
-497.62
-449.72
-476.71
-470.45
-457.42
-472.05
-497.89
-466.61
-489.55
-425.34
-495.71
-465.94
-483.56
-482.34
-462.89
-405.25
-379.62
-426.94
-400.17
-364.14
-387.48
-418.82
-353.57
-322.92
-357.27
-324.93
-308.76
-296.24
-333.63
-323.53
-286.76
-217.98
-221.6
-216.24
-175.24
-191.36
-227.53
-130.6
-157.49
-109.07
-139.91
-146.78
-146.99
-92.64
-40.32
-22.3
-2.46
-9.12
32.02
1526.49
40.93
19.03
20.19
41.14
109.52
135.35
101.64
91.08
177.43
197.63
126.88
215.75
236.88
186.2
222.13
243.92
230.18
243.45
266.26
266.35
309.86
347.15
287.29
355.53
308.11
357.01
389.44
386.7
388.42
412.88
403.13
456.38
428.5
455.8
411.41
434.42
475.39
433.8
495.06
477.27
467.23
497.04
523.66
450.37
443.13
492.98
478.74
454.99
510.38
505.15
515.99
506.09
501.82
459.22
527.03
463.7
522.03
473.71
461.34
498.52
527.66
493.2
490.53
420.02
471.56
498.49
497.62
397.91
422.15
414.67
423
432.56
382.75
350.55
403.25
412.26
388.25
326.2
324.08
310.67
314.71
274.04
321.23
326.1
268.28
242.65
293.59
249.53
194.15
244.84
164.1
200.47
168.96
117.38
166.12
97.08
128.92
56.99
114.81
91.99
36.63
46.85
-10.8
4.95
-38.3
-21.55
-76.95
-92.32
-23.31
-124.86
-99.57
-70.26
-97.02
-109.52
-144.03
-154.82
-150.46
-226.86
-236.28
-208.08
-263.47
-263.21
-298.7
-253.82
-277.12
-306.83
-348.32
-315.39
-344.28
-340.45
-347.28
-410
-412.21
-344.96
-356.12
-360.49
-370.31
-447.03
-461.16
-416.21
-426.13
-485.44
-468.97
-426.63
-431.92
-474.47
-475.9
-467.29
-494.76
-460.57
-462.28
-448.93
-477.53
-482.74
-521.36
-488.71
-513.51
-484.77
-466.33
-537.56
-537.36
-454.54
-518.83
-529.64
-506.65
-478.07
1002.87
-436.26
-455.09
-447.44
-412.54
-476.51
-459.6
-394.8
-403.22
-383.85
-416.42
-373.48
-391.34
-333.69
-343.19
-367.35
-307.35
-294.99
-281.47
-302.14
-322.12
-317.29
-304.41
-269.5
-206.44
-263.67
-214.69
-233.05
-227.97
-191.47
-139.65
-183.59
-122.1
-82.36
-108.18
-69.43
-40.11
-96.29
-92.45
-27.32
-7.33
-33.99
-2.73
73.26
7.66
21.87
78.45
119.91
103.65
82.58
97.6
169.03
204.24
158.36
185.19
187.9
251.41
223.06
224.15
277.91
245.75
285.66
307.29
287.42
328.09
361.01
379.74
303.75
325.98
390.28
424.35
406.87
370.32
397.4
435.44
424.71
458.11
421.87
443.3
477.23
497.4
507.37
459.78
446.13
458.48
460.71
475.61
465.22
464
469.97
464.45
482.67
524.49
463.43
523.24
470.03
506.63
498.87
524.33
505.79
493.49
497.4
532.59
437.94
519.05
480.2
449.73
441.69
419.92
474.45
425.8
400.64
418.03
378.54
448.12
412.5
342.23
347.38
340.38
367.91
387.57
384.89
336.32
339.89
350.03
312.92
281.61
234.42
267.35
214.26
199.83
251.14
227.45
184.51
210.55
196.76
167.45
88.31
78.06
125.39
103.79
46.01
27.51
3.2
-2.09
30.2
-17.53
-23.47
-68.5
-68.25
-57.41
-43.24
-110.17
-86.97
-93.48
-116.94
-202.07
-211.89
-199.65
-204.8
-165.91
-238.85
-238.21
-277.85
-308.81
-306.45
-272.29
1190.99
-298.44
-311.75
-289.24
-336.81
-352.45
-393.3
-387.23
-354.32
-435.93
-357.03
-441.25
-396.75
-447.25
-445.27
-457.37
-438.13
-408.83
-486.93
-500.13
-448.65
-489.76
-465.46
-497.01
-472.7
-479.56
-470.91
-505.06
-537.9
-462.42
-476.27
-512.65
-485.01
-533.85
-508.57
-531.15
-482.13
-443.03
-503.37
-476.22
-439.45
-464.88
-423.35
-473.02
-430.73
-499.9
-434.73
-431.21
-414.49
-407.65
-438.4
-439.45
-413.46
-435.64
-417.03
-398.24
-399.61
-311.24
-366.7
-299.22
-329.09
-323.91
-314.14
-237.54
-246.71
-232.22
-247.17
-271.26
-245.61
-202.59
-203.16
-190.44
-163.43
-164.98
-155.03
-143.72
-63.44
-56.91
-115.44
-90.65
-85.3
-35.87
-0.73
3.79
13.53
7.55
97.12
103.56
110.58
66.55
122.16
126.24
165.41
142.86
196.51
219.51
172.31
215.42
190.65
255.13
289.97
271.72
226.04
310.66
302.13
278.98
287.32
341.95
321.54
387.36
404.4
404.31
409.24
441.8
410.68
428.63
386.61
427.91
430.18
455.86
476.7
480.66
481.49
443.36
483.42
436.52
503.29
459.14
485.21
483.48
514.03
499.02
486.52
455.4
453.66
513.81
522.12
493.92
523.56
484.48
485.87
512.83
479.12
483.19
523.44
509.82
426.39
426.63
505.91
490.84
475.19
490.63
384.31
424.05
406.63
415.27
414.48
376.75
374.56
370.4
358.09
391.16
369.45
353.42
335.45
277.87
1760.78
295.15
318.17
298.49
292.6
258.74
214.57
217.41
226.33
144.34
185.8
140.24
102.79
160.07
140.52
51.89
71.48
63.37
-3.17
41.5
-11.13
-44.92
29.34
-43.82
-68.07
-69.9
-94.14
-49.5
-121.09
-103.1
-135.61
-111.51
-202.19
-167.71
-171.66
-217.3
-225.39
-282.44
-293.15
-244.22
-234.25
-284.92
-272.76
-347.75
-291.9
-300.42
-326.02
-387.11
-357.82
-360.34
-367.6
-382.22
-383.93
-392.56
-468.27
-438.07
-457.03
-438.61
-492.11
-493.14
-455.32
-454.99
-458.94
-466.99
-517.82
-517.94
-471.32
-494.78
-471.45
-457.18
-479.8
-520.33
-462.66
-537.74
-468.09
-518.23
-537.74
-447.69
-480.99
-478.92
-530.83
-532.52
-518.71
-461.47
-430.44
-452.19
-485.69
-479.37
-406.01
-457.46
-480.29
-382.17
-396.33
-445.59
-369.27
-406.28
-405.75
-364.91
-329.68
-343.72
-316.55