180.14
195.13
207.28
168.1
237.48
207.61
276.67
229.31
257.04
247.76
307.3
288.95
287.38
334.5
367.76
332.13
330.93
336.73
372.31
409.47
366.03
359.24
386.5
417.79
382.99
469.58
441.71
478.65
422.26
435.59
481.93
471.9
488.26
504.17
445.9
508.13
538.91
469.32
518.71
494.07
516.92
496.69
454.11
517.35
483.75
464.67
531.13
456.85
469.28
506.54
512.7
459.3
446.06
476.28
423.07
467.54
425.6
499.26
488.49
464.29
452.35
375.36
450.8
451.86
348.91
390.2
406.53
327.54
324.31
385.94
299.88
314.87
296.83
264.08
336.38
278.87
298.2
236.12
259.35
243.14
255.14
168.58
188.48
205.17
188.36
186.35
86.33
127.35
55.47
60.66
33.34
36.97
7.16
61.76
21.25
-6.03
-20.52
-57.95
-80.07
-86.34
-82.79
-135.45
-134.23
-169.08
-97.96
-134.09
-197.37
-184.77
-179.67
-175.49
-214.66
-270.64
-271.02
-274.2
-248.42
-243.45
1221.96
-361.58
-298.07
-325.8
-344.93
-392.29
-326.03
-399.84
-385.77
-375.3
-454.14
-460.01
-434.5
-424.96
-418.96
-420.51
-432.88
-500.4
-452.24
-467.36
-478.87
-496.4
-454.85
-485.74
-482.02
-449.59
-507.94
-452.47
-457.71
-450.36
-520.21
-464.39
-548.81
-450.87
-476.07
-545.07
-478.16
-441.77
-505.13
-532.92
-496.1
-427.86
-476.04
-489.13
-466.15
-479.69
-430.73
-471.18
-463.78
-420.38
-430.4
-394.79
-368.62
-430.26
-406.07
-364.97
-341.88
-366.24
-290.14
-369.1
-359.88
-277.57
-341.06
-296.57
-226.91
-291.7
-246.99
-191.18
-228.9
-197.93
-162.14
-185.14
-143.56
-184.93
-161.01
-87.1
-66.01
-82.73
-45.54
-61.09
-35.55
-35.41
4.87
32.96
34.25
74.65
60.55
47.85
121.34
79.62
143.45
144.96
114.53
191.4
119.38
207.05
223.19
186.16
193.85
278.55
297.69
230.25
307.2
326.33
273.42
348.3
327.94
351.38
313.26
313.64
414.48
340.07
368.4
366.37
430.39
427.3
469.28
443.65
390.35
469.84
476.91
443.45
470.62
437.31
490.85
451.46
443.15
447.9
453.23
500.58
450.78
515.57
453.83
527.46
456.01
467.08
465.39
498.22
451.54
445.92
522.4
518.72
502.97
460.46
479.33
468.55
507.07
456.51
440.75
501.82
491.9
435.05
468.22
398.58
392.16
447.52
360.33
405.41
379.41
399.8
373.99
393.69
335.11
378.05
317.9
267.49
1824.89
284.56
310.75
299.02
279.35
212.13
175.01
225.49
150.67
164.15
110.91
161.22
129.64
122.64
91.33
110.22
34.52
22.91
22.21
-1.03
2.9
9.46
-27.55
1.1
-45.71
-70.95
-124.37
-79.21
-68.27
-151.96
-120.79
-160.73
-161.9
-204.96
-184.85
-250.87
-171.36
-190.89
-290.29
-220.68
-230.81
-258.67
-258.66
-343.81
-293.77
-283.27
-367.21
-349.39
-373.8
-366.77
-338.82
-356.91
-416.53
-458.21
-457.17
-415.02
-484.46
-398.04
-460.24
-436.89
-444.49
-475.33
-517.63
-497.6
-461.2
-457.82
-533.71
-468.09
-499.51
-522.4
-468.98
-529.59
-499.17
-523.48
-529.6
-453.63
-519.39
-475.79
-498.22
-492.33
-500.54
-532.59
-487.45
-485.2
-458.43
-481.85
-450.83
-440.11
-448.08
-432.19
-416.61
-418.37
-413.59
-411
-434.11
-419.4
-359.14
-423.43
-387.66
-308.2
-335.92
-360.82
-300.49
-328.95
-340.89
-311.25
-253.03
-260.09
-272.53
-259.16
-218.81
-202.25
-168.15
-151.01
-155.4
-148.86
-139.95
-110.22
-83.64
-118.68
-82.11
-72.71
-7.04
15.79
34.65
32.53
5.5
25.37
20.44
18.29
120.48
101.86
105.79
138.67
126.21
157
210.03
153.73
161.86
165.87
192.09
267.37
211.68
266.54
283.39
285.64
332.72
315.17
291.77
299.82
333.96
365.24
339.41
359.72
358.45
402.42
407.63
453
405.07
474.92
416.57
433.06
454.2
466.13
472.67
456.54
487.84
1971.66
512.65
519.1
445.23
461.84
481.17
524.36
512.37
538
527.04
510.04
468.41
449.91
498.13
457.22
457.45
457.5
461.53
441.19
480.14
496.11
502.72
426.04
478.49
472.13
412.37
394.9
425
415.74
430.16
410.09
420.46
407.98
345.06
380.12
332.92
318.12
387.81
310.36
306.89
343.39
290.04
269.27
232.57
223.11
201.49
240.26
263.83
166.14
158.26
153.55
164.07
178.87
171.84
81.82
140.73
42.67
119.74
28.45
86.76
28.1
0.18
6.78
-56.8
-0.48
-38.03
-93.5
-88.3
-96.43
-95.56
-70.31
-112.09
-191.76
-202.36
-137.51
-176.25
-206.53
-223.86
-188.34
-204.08
-217.99
-220.2
-309.33
-327.79
-284.02
-323.88
-378.32
-385.89
-354.65
-343.99
-350.79
-347.55
-438.04
-393.87
-374.49
-410.85
-391.79
-476.93
-396.74
-428.84
-419.55
-446.37
-505.8
-424.23
-457.09
-494.29
-473.21
-515.21
-538.3
-457.47
-461.27
-521.7
-476.39
-468.48
-452.04
-481.45
-524.78
-469.4
-468.69
-487.68
-535.92
-470.28
-491.23
-453.5
-474.53
-520.95
-516
-479.78
-414.53
-442.74
-429.98
-469.52
-449.25
-458.75
-392.81
-455.03
-395.27
-382.72
-335.07
-406.27
-340.22
-355.67
-316.58
-331.53
-288.62
-298.57
-266.99
-247.27
-276.13
-225.37
-271.13
-179.51
-164.34
-156.95
-215.48
-165.35
-136.42
-168.66
-114.35
-146.68
-57.97
-98.46
-71.24
-49.28
-6.42
-11.2
38.62
1529.71
0.39
53.34
16.47
59.89
52.5
74.12
148.14
80.17
138.3
190.62
136.56
184.54
161.6
190.84
222.19
280.8
207.1
228.67
289.27
340.36
332.73
321.28
321.83
376.41
362.42
334.02
340.94
415.57
371.18
445.99
393.7
416.43
456.07
471.58
441.69
408.6
487.8
448.88
484.73
495.47
460.36
529
454.08
510.01
535.62
500.46
521.39
509.97
496.23
541.67
484.5
494.59
495.7
532.21
450.47
497.92
496.9
467.55
463.65
466.06
511.44
475.65
425.09
479.02
412.38
483.19
483.84
444.51
442.11
447.99
372.55
399.38
441.19
426.75
345.94
331.12
338.52
358.42
378.35
354.44
335.56
298.68
327.29
323.16
224.54
257.12
262.15
242.98
169.98
215.3
181.07
196.07
136.07
190.27
144.74
123.39
143.41
70.5
115.37
96.24
43.66
-15.26
-19.21
-15.95
10.19
-53.19
-53.35
-22.28
-101.74
-110.71
-141.61
-107.26
-113.05
-171.44
-191
-230.65
-196.83
-216.03
-236.24
-207.49
-246.85
-255.42
-319.67
-317.56
-335.16
-269.25
-365.98
-321.68
-361.93
-348.87
-406.75
-393.53
-344.81
-411.85
-409.57
-381.17
-386.86
-418.03
-434.47
-418.62
-471.61
-467.84
-444.7
-477.9
-499.16
-441.47
-446.95
-532.45
-499.02
-462.31
-452.04
-457.94
-466.36
-522.74
-457.59
-486.86
-451.69
-537.02
-498.13
-458.91
-447.42
-485.44
-532.02
-500.93
-496.88
1061.45
-447.74
-504.94
-469.15
-474.73
-475.64
-420.04
-454.46
-379.88
-381.43
-449.74
-421.49
-430.74
-340.29
-357.28
-382.73
-309.73
-337.02
-291.63
-340.81
-343.34
-330.17
-282.35
-252.7
-235.58
-210.1
-270.76
-214.19
-169.53
-138.3
-152.67
-181.06
-140.8
-112.22
-97.76
-92.93
-124.76
-91.71
-38.64
-19.67
-40.18
10.42
24.68
38.84
44.24
56.98
77.61
122.36
45.84
81.79
87.02
168.46
120.69
214.54
193.77
190.8
198.27
257.45
248.54
253.33
288.12
275.28
266.05
276.57
276.34
300.61
303.99
342.06
402.45
332.89
363.66
350.19
439.13
376.73
412.55
430.58
467.01
410.56
407.86
484.53
426.83
456.59
447.02
440.48
446.58
520.6
534.07
524.28
488.32
525.21
489.88
538.27
473.59
477.94
515.72
471.67
476.26
456.99
470.12
526.5
474.19
530.27
435.69
451.12
437.87
439.23
460.65
413.46
431.89
477.24
435.8
394.49
391.92
397.05
447.56
361.76
437.41
420.58
411.16
368.79
346.18
363.27
319.11
292.82
320.34
319.01
325.65
235.2
259.08
210.4
186.77
172.11
212.47
159.04
180.06
114.18
112.36
161.55
143.05
109.64
120.68
79.81
50.19
-7.17
25.33
36.17
-33.57
-56.24
-30.31
-59.39
-93.39
-121.51
-108.87
-135.59
-126.02
-124.38
-150.83
-211.88
-216.17
-234.05
-230.56
-212.77
-250.11
-210.02
-258.71
-267.14
-329.61
1224.34
-332.47
-358.6
-326.8
-356.19
-369.45
-405.74
-409.92
-394.84
-391.91
-436.83
-369.41
-387.05
-477.32
-423.1
-491.59
-424.48
-462.19
-473.18
-456.67
-451.9
-431.42
-493.84
-473.81
-518.78
-467.63
-536.14
-491.37
-460.8
-452.08
-523.08
-522.42
-486.06
-466.94
-482.42
-516.26
-447.49
-504.91
-530.87
-517.97
-442.52
-513.06
-518.78
-462.41
-457.43
-462.38
-455.76
-454.5
-420.8
-434.6
-383.26
-390.06
-421.9
-409.89
-426.8
-421.15
-323.54
-320.83
-298.57
-295.23
-280.18
-263.4
-281.15
-275.27
-264.66
-221.16
-236.92
-234.15
-229.14
-232.33
-219.74
-226.93
-195.72
-153.03
-173.62
-108.83
-105.65
-42.21
-76.68
-45.16
-85.53
-78.89
3.02
-8.85
43.39
18.61
9.77
54.07
46.88
59.78
88.09
71.07
135.77
152.76
196.66
174.89
214.33
188.14
192.65
189.67
246.31
255.94
271.05
299.12
272.85
356.88
331.66
310.36
308.3
358.86
319.31
386.11
411.35
430.5
400.37
412.24
442.03
398.37
437.36
478.29
440.42
495.5
433.28
456.62
514.41
492.62
510.01
483.83
516.87
462.79
492.67
545.55
526.67
541.13
455.27
492.12
518.21
486.85
546.48
543.97
501.13
442.94
502.29
494.72
436.12
456.56
478.8
472.9
463.87
420.42
404.74
399.56
438.47
441.73
402.06
373.78
364.16
351.23
367.59
374
372.29
310.13
326.94
382.78
294.57
336.61
255.72
1756.48
269.69
265.46
241.21
264.52
259.41
222.14
184.39
155.56
179.92
194.93
118.81
117.23
124.32
105.49
111.59
31.15
17.43
73.86
-12.02
34.97
-9.82
-33.17
-56.39
-84.64
-47.5
-69.39
-57.24
-68.4
-125.14
-138.48
-113.24
-142.9
-219.32
-180.72
-235.43
-244.66
-219.57
-280.46
-295.62
-307.48
-303.93
-333.23
-340.62
-361.35
-319.37
-379.57
-329.48
-396.91
-372.67
-411.7
-370.23
-403.93
-400.12
-396.88
-410.63
-428.39
-494.21
-444.85
-431.59
-486.65
-446.99
-467.51
-469.11
-529.16
-518.8
-490.21
-474.77
-473.49
-495.21
-517.24
-472.27
-516.5
-477.41
-493.63
-537.24
-484.72
-480.71
-511.44
-528.14
-516.7
-482.04
-508.76
-479.66
-436.33
-464.99
-473.35
-480.37
-463.22
-484.33
-388.09
-449.88
-419.09
-409.26
-392.64
-369.85
-360.6
-382.9
-318.91
-373.9
-336.29
-295.09
-267.37
-337.89
-311.55
-312.13
-307.8
-202.28
-252.36
-178.31
-201.95
-239.29
-195.69
-162.2
-169.9
-164.02
-136.98
-81.6
-133.57
-82.65
-98.85
-42.61
13.3
-53.39
34.42
-12.96
-23.86
0.37
59.11
112.16
93.34
105.92
90.64
163.56
157.97
150.49
221.93
180.36
227.35
261.61
233.89
237.86
214.57
245.97
325.63
267.08
254.28
296.13
310.81
371.06
386.8
354.77
324.55
360.2
386.67
400.76
426.77
463.69
462.97
389.17
483.2
476.97
411.7
448.14
501.8
484.62
513.14
438.45
502.43
467.31
455.86
504.97
491.6
547.09
519.09
461.08
512.11
473.05
548.72
498.23
488.7
502.53
456.42
482.6
529.16
507.08
467.6
490.87
484.59
473.11
478.53
425.71
424.52
437.99
474.01
393.38
452.27
408.09
445.49
421.56
389.03
358.32
313.47
369.94
345.61
327.67
292.99
350.88
257.14
254.08
283.56
241.86
188.77
192.13
235.06
156.4
156.27
182
199.26
95.78
171.94
109.32
110.32
62.2
23.94
71.25
46.98
36.44
9.01
39.81
-22.47
11.25
-76.09
-38.62
-113.7
-108.05
-78.25
-122.4
-174.72
-180.36
-158.41
-226.83
-157.62
-176.85
-234.54
-249.99
-237.92
-261.46
-230.67
-270.11
-297.31
-341.9
-292.98
-359.26
-305.9
-366.22
-351.95
-367.4
-386.19
-433.18
-382.73
-444.05
-424.87
-393.54
-438.8
-479.09
-492.21
-434.81
-508.77
-517.52
-462.67
-522.63
-438
-438.1
-484.08
-495.27
-497.9
-475.97
-524.73
-507.26
-519.88
-503.75
-538.94
-473.97
-476.6
-508.93
-452.47
-526.36
-510.57
-493.73
-471.2
-495.06
-474.81
-506.51
-415.18
-466.15
-495.41
-470
-478.68
-471.88
-395.95
-409.58
-376.64
-379.35
-429.22
-369.81
-403.2
-299.62
-296.09
-315.05
-333.5
-291.92
-254
-326.98
-244.59
-204.81
-243.31
-190.15
-192.44
-205.23
-195.36
-172.17
-167.19
-159.83
-130.16
-114.96
-86.18
-103.14
-83.67
-66.17
4.57
-29.06
-24.36
1552.32
5.92
7.32
16.18
60.78
124.77
62.42
138.08
152.36
95.88
197.1
118.13
196.74
241.71
187.33
222.86
258.73
270.98
220
249.38
301.16
336.75
325.75
322.85
304.47
306.84
394.11
350.7
422.94
405.87
404.05
409.18
387.65
372.74
388.66
465.03
399.5
480.37
458.86
446.32
509.14
443.64
513.66
531.83
461.3
490.14
507.03
473.42
505.53
492.08
484.07
486.41
544.11
541.36
522.43
531.72
519.95
467.7
452.42
468.91
491.41
527.96
428.96
479.87
429.61
438.33
479.53
443.99
410.82
476.55
446.01
368.62
425.72
353.85
438.22
400.83
359.11
347.65
373
299.7
338.32
364.17
353.42
341.4
282.38
265.03
268.05
235.27
190.21
195.69
244.02
220.22
181.29
148.52
187.34
148.27
84.89
102.73
137.01
77.58
83.89
85.75
28.98
61.17
-36.44
-27.82
-40.07
-39.92
-40.8
-55.13
-43.46
-92.67
-80.34
-162.84
-192.86
-166.91
-222.32
-232.59
-166.76
-190.53
-195.43
-267.49
-275.74
-305.56
-320.53
-317.46
-351.57
-312.45
-294.67
-385.12
-312.48
-332.16
-332.41
-370.23
-430.11
-378.84
-400.59
-419.45
-415.09
-402.96
-445.41
-412.47
-467.49
-425.71
-479.43
-505.43
-451.36
-509.78
-445.13
-501.55
-514.35
-525.6
-463.38
-537.56
-496.73
-522.91
-460.5
-519.32
-536
-529.08
-541
-452.99
-520.98
-474.08
-534.12
-463.41
-430.25
1076.47
-453.65
-465.63
-450.17
-429.78
-434.61
-418.65
-440.32
-441.04
-364.4
-430.6
-414.96
-340.7
-399.78
-337.8
-355.9
-316.06
-378.09
-287.95
-320.68
-337.9
-249.12
-258.98
-253.62
-249.94
-260.42
-225.17
-252.12
-209.16
-142.76
-159.29
-143.88
-111.48
-105.31
-98.31
-99.69
-112.15
-71.25
-26
-68.36
17.85
3.82
64.28
28.6
28.33
28.01
109.85
136.17
120.93
81.12
162.37
112.81
141.98
213.79
183.79
198.11
173.54
183.22
196.04
230.48
291.29
331.49
281.02
348.09
269.78
334.35
360.54
328.16
317.79
406.09
372.78
404.86
435.32
407.06
453.37
388.18
396.12
491.32
482.86
466.26
479.6
513.05
457.18
434.77
444.65
460.78
454.3
496.9
471.05
521.5
546.65
472.46
478.24
500.01
494.61
548.91
506.26
484.46
529.43
495.57
468.26
528.28
460.65
510.55
459.46
438.96
482.99
502.62
462.93
395.05
420.9
439.52
376.93
403.6
418.88
416.71
407.26
414.78
377.86
368.42
312.58
351.73
370.53
312.8
287.28
244.33
305.06
241.49
258.29
227.58
204.12
198.49
189.51
165.49
131.61
119.55
110.2
143.05
84.96
100.14
67.71
69.85
1.7
73.4
-13.78
-39.88
-46.37
-14.05
-8.6
-19.3
-22.74
-129.76
-67.6
-101.83
-140.09
-122.35
-128.25
-196.45
-173.49
-192.24
-210.36
-265.15
-250.07
-218.53
-232.47
-252.09
-284.64
-289.21
-335.1
-357.05
-369.64
-390.79
-395.04
-330.05
-352.5
-394.1
-447.94
-405.03
-450.67
-418.22
-457.44
-405.17
-414.93
-431.04
-455.24
-482.99
-434.28
-522.24
-446.23
-522.62
-439.16
-494.31
-487.91
-536.16
-534.82
-473.25
-487.31
-514.13
-548.38
-535.14
-507.36
-487.69
-505.69
-521.25
-466.68
-474.29
-515.8
-450.13
-479.89
-435.23
-452.94
-472.67
-413.97
-406.59
-456.46
-401.96
-380.28
-457.63
-384.09
-436.51
-435.28
-386.18
-321.58
-388.18
-355.63
-364.5
-309.92
-302.01
-292.05
-308.66
-291.08
-287.5
-221.4
-240.12
-205.29
-242.6
-212.93
-186.11
-200.81
-114
-113.46
-109.23
-71.55
-143.25
-69.97
-73.43
-26.17
-76.29
29.17
5.48
46.03
69.43
49.79
71.18
44.21
121.31
117.85
154.26
145.53
139.77
192.72
125.83
141.14
224.8
192.86
184.61
244.7
204.17
242.19
244.53
321.97
287.95
296.08
344.65
341.5
369.42
409.79
344.38
333.6
429.41
353.73
385.29
400.45
399.62
438.38
467.78
407.8
436.38
427.3
483.68
428.38
524.99
509.49
498.1
493.86
497.96
444.16
449.05
530.14
508.94
511.22
511.03
464.85
533.11
468.74
482.88
528.32
480.43
487.83
512.17
523.41
458.43
433.22
419.84
494.48
497.51
461.25
398.42
477.58
479.85
463.89
461.22
403.83
404.72
406.62
387.3
360.97
352.47
336.76
308.4
328.18
332.74
346.28
1788.04
318.42
296.2
283.17
265.58
236.65
205.76
218.34
156.99
127.49
196.5
110.39
141.95
117.53
85.26
111.43
114.08
76.16
44.82
23.31
39.36
-44.23
-50.05
-73.19
-45.28
-68.66
-95.98
-54.04
-123.58
-167.97
-160.99
-200.89
-140.67
-219.45
-173.52
-204.38
-184.07
-243.94
-262.4
-215.61
-267.94
-261.54
-320.76
-279.91
-330.58
-350.28
-361.48
-395.46
-367.87
-367.53
-428.7
-423.75
-406.99
-454.17
-427.82
-429.3
-406.13
-449.46
-411.4