-339.32
-300.67
-337.85
-355.05
-367.84
-306.91
-351.04
-377.3
-356.28
-385.56
-365.68
-394.13
-444.82
-402.73
-448.05
-414.3
-431.39
-465.89
-466.28
-473.65
-501.55
-442.51
-443.26
-495.09
-470.94
-523.24
-459.6
-469.69
-541.72
-523.27
-516.61
-520.65
-491.5
-521.17
-464.66
-502.6
-510.68
-523.13
-523.15
-461.28
-487.85
-449.41
-465.63
-461.83
-468.18
-453.89
-403.87
-428.6
-480.19
-451.7
-464.62
-375.06
-431.41
-441.66
-390.89
-355.02
-322.79
-331.21
-372.83
-365.32
-282.38
-351.59
-310.01
-293.23
-304.45
-282.2
-235.54
-267.47
-188.56
-226.93
-165.47
-177.06
-162.31
-119.69
-96.21
-99.53
-63.9
-138.31
-27.71
-52.76
-18.6
15.21
29.1
11.42
31.18
14.35
40.24
87.81
123.02
61.89
100.57
152.89
106.46
114
190.52
176.48
199.9
165.23
266.4
250.4
235.38
290.98
257.29
309.65
334.91
268.2
304.19
318.66
381.14
305.51
370.94
419.41
364.53
350.58
373
388.17
372.08
377.61
422.91
469.98
464.81
463.35
481.14
462.41
448.24
518.78
482.74
493.15
481.56
445.32
535.01
539.07
512
476.65
490.35
467.85
524.3
500.67
531.5
470.57
512.51
541.5
442.48
502.79
489.64
444.81
514.16
489.96
493.01
490.69
485.82
429.54
406.34
477.21
388.73
418.46
453.7
405.81
416.53
418.35
365.78
317.28
328.01
320.87
279.1
287.73
295.99
278.82
275.79
213.86
229.75
263.88
194.15
202.4
197.11
135.38
155.32
192.92
96.67
145.43
93.19
60.35
38.57
41.26
34.65
3.51
42.15
-38.17
-47.08
-20.76
-46.71
-24.49
-77.36
-119
-86.24
-152.5
-161.56
-97.1
-157.4
-149.07
-200.25
-247.14
-239.87
-230.5
-256.55
-218.53
-263.69
-286.96
-245.6
-308.99
-333.14
-305.51
-315.57
-376.44
-390.01
-333.24
-422.71
-388.65
-354.4
-373.18
-440.19
-462.56
-403.44
-427.85
-495.8
-426.29
-505.68
-450.1
-514.78
-502.49
-470.83
-491.19
-504.9
-456.8
-505.18
-491.2
-543.82
-546.42
-536.33
-504.68
-507.38
-479.48
-498.4
-514.65
-496.14
-445.85
-490.55
-442.91
-522.92
-470.99
1014.04
-457.01
-424.68
-490.22
-407.92
-443.02
-417.95
-415.66
-423.3
-381.84
-373.92
-404.45
-393.21
-422.61
-363.57
-312.54
-386.12
-317.82
-329.85
-269.76
-253.88
-330.01
-258.95
-228.94
-283.28
-198.64
-179.64
-182.88
-145.78
-162.16
-185.56
-163.86
-169.92
-96.87
-110.89
-77.17
-75.71
-42.07
-79.9
-54.09
-42.48
37.07
37.61
20.89
19.97
82.59
103
101.67
66.16
73.91
177.68
156.17
192.15
207.18
179.08
219.46
229.64
213.05
289.57
266.33
250.98
288.06
341.27
323.81
351.11
285.48
379.38
323.82
379.86
343.02
358.49
384.03
407.68
393.72
426.77
427.41
391.21
470.02
408.18
497.41
414.31
431.91
458.4
515.57
443.7
521
515.87
470.23
518.05
522.31
512.44
479.05
543.05
468.99
464.68
511.31
521.75
458.26
469.84
521.61
485.17
524.42
484.05
435.15
429.46
430.72
431.4
413.72
410.32
471.26
404.53
438.6
420.26
419.69
440.72
390.36
348.07
408.15
410.49
397.49
319
331
331.87
300.06
297.13
299.3
233.67
306.28
216.01
286.77
195.93
185.16
230.88
228.54
192.06
150.71
124.48
125.61
149.24
57.85
65.36
98.03
98.94
68.96
32.46
-39.17
22.67
-7.16
-4.4
-30.03
-42.8
-54.59
-78.37
-85.01
-98.19
-93.49
-128.02
-177.44
-227.49
-217.69
-256.15
-199.11
-255.88
-280.71
-249.29
-298.7
-301.83
1240.21
-301.53
-358.7
-321.35
-366.83
-313.73
-360.1
-410.69
-416.89
-382.07
-452.16
-368.78
-392.13
-436.99
-441.2
-399.39
-483.58
-431.44
-506.51
-469.47
-454.24
-485.43
-476.28
-477.7
-534.51
-479.27
-474.09
-500.06
-482
-537.78
-478.03
-457.27
-524.03
-488.68
-536.68
-517.06
-484.33
-530.52
-537.47
-462.83
-505.92
-445.57
-433.2
-469.94
-426.53
-445.33
-458.66
-406.13
-475.94
-428.09
-419.97
-425.1
-411.41
-362.67
-366.4
-382.55
-402.22
-304.83
-316.18
-295.95
-340.64
-263.57
-250.44
-259.47
-246.86
-256.65
-236.25
-226.83
-184.87
-220.29
-163.09
-189.77
-178.43
-152.51
-149.2
-148.59
-140.2
-102.08
-25.65
-8.13
-17.2
-24.68
-42.78
-13.41
33.44
-1.34
64.98
32.33
62.61
144.29
93.44
96.39
135.29
188.02
141.11
172.44
223.5
228.57
198.6
286.04
291.04
237.72
280.7
264.7
287.28
318.17
292.06
354.66
314.42
338.24
389.5
426.82
394.04
399.64
422.5
453.1
392
388.88
442.58
401.25
413.69
494.57
466.06
470.79
458.11
493.38
439.7
500.36
538.93
443.53
445.68
514.37
539.96
484.25
535.64
465.25
466.12
491.93
448.27
486.3
509.17
454.1
459.13
520.33
431.04
499.6
452.21
496.42
445.22
487.51
435.89
477.72
444.32
475.98
371.96
411.08
360.88
368.6
375.73
324.05
389.56
387.7
359.06
345.04
307.32
335.08
336.71
257.81
242.08
243.15
265.09
252.29
246.16
227.1
171.21
221.3
118.48
97.2
132.25
118.83
61.21
40.73
101.01
88.78
27.76
65.36
-19.04
-49.15
-3.04
4.6
-36.48
-35.98
-105.33
-131.51
-128.3
-113.99
-95.59
-129.88
-205.16
-173.17
-242.37
-248.78
-245.83
-200
-274.96
-218.6
-297.11
-309.76
-299.47
-293.68
-365.76
-363.95
-322.64
-305.69
-408.6
-367.96
-412.59
-411.89
-420.34
-457.18
-399.49
-428.33
-443.23
-466.36
-464.1
-463.38
-413.77
-491.87
-520.89
-442.4
-481.2
-487.66
-509.83
-499.68
-497.54
-503.4
-489.74
-471.04
-501.75
-469.31
-476.44
-534.51
-495.97
-506.07
-510.91
-456.84
-457.88
-511.22
-515
-523
-436.63
-503.22
-483.63
-471.81
-449.71
-428.44
-404.38
-441.96
-427.37
-395.17
-395.36
-376.15
-404.99
-407.37
-325.54
-319.97
-293.06
-361.05
-338.59
-346.35
-271.71
-313.44
-263.93
-229.79
-288.2
-213.58
-227.41
-229.84
-220.54
-213.55
-130.82
-121.41
-110.27
-125.66
-97.39
-86.78
-29.15
-32.16
-2.73
-48.04
9.08
18.73
-27.68
19.56
65.37
72.33
48.85
54.18
103.92
128.92
85.44
168.29
163.45
149.05
211.19
158.22
213.42
279.14
230.96
246.2
276.59
289.73
334.6
349.8
363.25
297.52
324.05
311.11
355.4
396.31
413.99
404.81
373.19
439.68
430.34
410.67
454.2
444.67
492.36
483.6
462.84
432.88
467.58
2016.42
529.01
468.34
522.51
520.18
473.05
516.88
469.83
465.01
465.07
477.15
455.93
547.7
546.13
523.17
467.31
473.02
515.59
534.72
531.19
485.72
456.42
424.42
464.32
459.7
432.21
467.08
386.55
460.63
410.37
441.11
364.13
347.3
350.56
422.55
387.99
357.34
367.1
339.53
348.27
272.27
314.15
275.47
238.33
222.39
273.26
237.19
176.38
177.54
166.45
150.99
205.18
147.3
185.63
73.58
106.1
72.83
76.56
71.67
46.05
63.54
20.48
3.08
15.7
-71.07
-1.69
-83.74
-60.49
-96.2
-95.32
-81.4
-132.34
-185.03
-182.66
-154.88
-166.37
-222.79
-264.71
-241.05
-208.31
-228.02
-236.03
-242.13
-259.09
-264.52
-295.95
-295.23
-326.41
-370.15
-396.05
-349.42
-376.05
-352.67
-410.17
-376.9
-465.29
-422.59
-477.04
-416.15
-435.01
-420.9
-427.88
-465
-495.16
-430.22
-516.93
-465.84
-534.29
-539.57
-536.13
-464.16
-526.45
-473.16
-463.11
-515.14
-508.15
-533.93
-485.37
-451.2
-494.37
-470.07
-505.68
-514.2
-434.51
-449.18
-454.35
-468.3
-507.48
-486.25
-459.15
-439.34
-465.39
-475.39
-447.98
-455.27
-365.67
-368.39
-372.77
-381.04
-382.66
-377.15
-371.18
-318.78
-290.55
-317.41
-333.37
-251.69
-250.22
-254.72
-227.35
-263.97
-252.01
-252.26
-154.47
-171.69
-154.64
-175.64
-103.66
-128.67
-129.64
-104.36
-60.45
-31.88
-52.61
9.75
-3.79
32.42
1469.66
56.76
45.96
52.32
35.07
76.83
58.1
122.1
134.46
116.27
187.84
181.11
155.58
220.38
225.1
201.6
234.43
205.25
230.68
244.2
322.79
263.47
320.45
367.79
377.77
305.97
371.02
394.1
424.43
401.23
420.97
415.26
403.23
445.09
448.57
415.09
418.65
405.96
489.9
508
423.64
429.21
440.35
440.66
478.8
450.84
509.53
507.4
464.15
478.71
542.59
510.77
500.87
455.23
515.19
525.78
451.59
482.53
452.28
449.06
460
443.55
504.79
480.36
472.95
497.68
467.01
449.32
446.71
478.17
429.4
429.42
394.51
400.99
415.35
350.76
375.1
340.48
361.07
330.48
323.39
266.97
320.07
306.81
257.49
307.49
270.31
233.02
259.53
214.89
227.53
213.58
139.84
173.14
183.36
167.63
120.84
52.17
48.11
110.03
37.9
61.57
-10.5
24.8
-51.28
-57.63
-36.49
-4.96
-38.38
-97.31
-60.9
-65.1
-167.39
-107.48
-139.2
-179.43
-165.04
-202.38
-240.88
-267.33
-278.32
-214.24
-266.4
-262.66
-301.48
-304.51
-285.96
-316.27
-336.72
-356.09
-362.63
-391.23
-416.83
-423.3
-403.15
-409.28
-452.42
-418.56
-390.65
-407
-457.7
-445.89
-434.54
-497.23
-455.39
-443.2
-466.39
-470.53
-534.97
-455.3
-524.77
-459.53
-455.04
-540.32
-456.12
-482.79
-478.02
-460.42
-531.46
-539.94
-499.19
-465.1
-466.71
-518.36
-532.47
-432.48
-479.19
-500.37
-444.82
-413.66
-461.67
-482.5
-406.58
-479.7
-466.63
-410.61
-427.24
-352.29
-416.37
-429.32
-411.21
-373.09
-374.18
-347.25
-361.91
-279.3
-347.82
-288.95
-281.75
-231.82
-281.2
-234.57
-244.55
-243.84
-220.17
-197.67
-219.2
-195.57
-132.93
-161.68
-112.89
-127.33
-105.39
-66.76
-62.11
-86.97
13.57
-57.49
-32.06
46.62
-5.16
93.29
52.96
119.7
60.33
141.91
171.97
174.43
149.19
210.72
147.87
172.77
231.51
223.91
187.32
256.8
289.45
257.65
317.94
339.31
350.57
342.63
349.67
353.06
327.81
337.28
374.79
388.13
364.3
413.56
455.19
452.37
402.77
462.02
456.31
465.32
416.31
436.34
501.38
464.63
450.01
527.85
488.94
459.9
515.21
495.27
498.57
545.52
533.66
469.12
494.77
504.93
464.1
500.42
506.83
446.48
489.11
509.84
436.46
439.17
439.28
426.08
422.38
472.07
443.32
454.63
473.49
427.61
423.73
441.54
431.06
353.33
380.09
399.16
387.21
362.23
387.39
385.69
279.47
335.71
330.53
327.88
329.97
270.16
257.91
259.59
252.4
223.44
211
225.29
206.46
183.13
150.83
151.19
157.26
58.64
46.66
53.11
66.28
63.26
-0.8
-32.75
-11.57
28.03
-67.15
-57.98
-92.03
-46.14
-77.11
-90.42
-140.91
-120.84
-114.66
-170.48
-167.09
-188.33
-228.04
-231.49
-265.06
-253.96
-265.88
-296.74
-283.44
1212.28
-292.35
-366.07
-369.44
-379.07
-342.25
-354.28
-340.93
-428.56
-378.88
-450.4
-399.68
-417.67
-403.68
-470.26
-469.6
-413.02
-489.35
-454.57
-471.22
-460.28
-455.3
-439.61
-507.69
-443.78
-526.1
-543.78
-487.17
-451.27
-540.37
-460.53
-467.42
-511.96
-541.84
-531.58
-486.2
-496.6
-457.99
-514.95
-494.73
-515.89
-459.85
-432.62
-496.51
-510.62
-478.07
-404.77
-468.4
-460.69
-462.69
-433.74
-380.81
-401.68
-407.77
-350.53
-373.7
-330.78
-311.66
-322.85
-327.66
-357.23
-340.51
-246.72
-261.47
-288.73
-216.58
-284.92
-231.09
-177.47
-163.99
-181.67
-172.42
-145.38
-185.1
-156.17
-169.14
-154.59
-117.48
-28.69
-84.35
-47.03
-63.82
12.86
30.07
24.81
29.24
77.57
74.75
69.89
117.48
132.96
152.23
163.72
99.01
134.87
127.37
152.81
183.31
255.29
202.2
282.71
262.68
303.72
309.31
271.87
335.26
363.18
289.41
376.57
317.58
396.92
381.83
377.57
352.4
408.97
455.37
421.75
469.44
451.92
394.8
407.43
471.26
486.51
469.61
479.68
500.44
450.17
489.75
528.39
498.29
529.77
462.25
458.58
458.15
469.08
466.76
538.34
517.3
453.68
491.5
492.48
465.23
481.19
534.45
468.82
511.35
514.62
458.49
482.22
423.11
491.15
460.9
478.01
429.55
415.15
421.26
447.25
406.34
344.13
361.63
328.55
329.73
348.09
335.65
277.88
265.59
330.19
1782.01
269.81
301.43
203.65
271.98
211.48
229.81
212.55
139.41
210.82
154.78
127.64
143.99
147.59
87.84
69.58
76.65
-1.27
19.65
-29.35
4.47
0.84
-27.65
-91.81
-103.46
-34.5
-69.5
-98.12
-123.64
-174.75
-159.47
-129.01
-162.16
-208.46
-189.81
-212.2
-223.41
-214.94
-281.67
-260.94
-319.6
-282.41
-340.41
-314.84
-346.12
-326.35
-395.14
-404.55
-401.86
-422.55
-373.1
-406.73
-405.64
-451.01
-428.19
-392.4
-415.55
-404.07
-412.62
-499.44
-429.94
-511.19
-458.44
-461.1
-471.93
-452.55
-516.93
-456.3
-529.55
-454.74
-515.87
-490.47
-485.46
-518.22
-449.7
-535.3
-456.7
-464.63
-475.39
-509.97
-507.67
-442.43
-486.46
-472.06
-490.74
-456.67
-480.37
-448.23
-471.38
-431.92
-479.31
-386.41
-421.73
-398.34
-413.1
-374.97
-345.36
-387.11
-331.68
-323.95
-300.88
-291.98
-344.66
-260.72
-296.74
-231.07
-275.16
-294
-220.79
-272.28
-229.32
-232.97
-161.85
-119.66
-120.91
-99.43
-77.75
-92.89
-107.46
-36.47
-80.54
-64.75
1.93
-36.59
-2.31
4.37
36.61
86
90.46
49.87
79.13
127.77
107.17
134.31
150.91
199.28
135.41
231.83
150.64
164.09
225.52
257.8
284.55
234.71
274.05
255.54
264.29
293.29
316.13
319.86
339.4
375.54
403.8
331.32
373.77
442.6
361.85
390.09
405.28
451.54
403.54
421.67
450.62
448.78
491.92
491.79
425.69
518.22
445.84
471.8
475.05
515.22
509.65
506.54
465.11
461.32
455.13
509.81
453.48
484.24
489.67
482.97
532.94
475.18
535.11
516.36
497.17
509.49
496.64
490.85
489.19
492.18
491.74
425.76
419.61
396.99
428.29
387.01
412.42
434.99
415.83
402.66
350.55
301.33
347.64
338.68
319.35
333.63
271.19
327.13
292.65
219.43
191.37
176.24
256.92
223.49
196.81
120.43
182.43
155.82
143.91
100.41
143.22
70.6
92.12
35.01
2.25
36.26
32.61
38.73
1.32
-74.49
-60.84
-116.14
-64.16
-78.51
-99.83
-120.91
-109.05
-176.07
-145.55
-204.67
-211.34
-216.83
-236.28
-201.73
-274.81
-257.61
-315.59
-263.37
-258.55
-268.99
-304.42
-378.06
-302.12
-376.7
-407.73
-383.85
-395.91
-361.18
-363.42
-371.79
-383.76
-432.85
-452.32
-441.02
-452.61
-459.67
-506.09
-491.47
-522.61
-498.5
-466.44
-522.6
-442.54
-471.94
-455.45
-477.81
-476.86
-473.1
-505.61
-474.7
-500.96
-459.96
-464.88
-496.31
-481.9
-540.65
-462.3
-474.25
-431.4
-453.61
-473.41
-440.97
-477.95
-452.48
-406.88
-458.87
-425.34
-454.52
-394.65
-409.48
-410.9
-405.3
-409.09
-385.73
-387.57
-385.58
-322.13
-376.26
-307.94
-349.84
-330.41
-318.72
-230.66
-208.22
-239.15
-191.78
-239.48
-171.53
-212.8
-207.22
-117.28
-93.8
-151
-92.2
-67.47
-47.35
-73.93
-86.15
-62.48
15.84
36.51
1466.1
18.77
0.58
17.62
33.15
87.75
47.6
104.52
154.55
101.32
127.19
207.28
192.17
180.99
162.86
211.02
255
237.53
252.81
290.55
330.96
306.31
308.35
330.62
366.82
352.57
356.39
368.85
354.81
361.21
438.88
401.7
430.2
391.35
414.93
474.33
466.2
406.54
408.73
444.82
492.54
513.44
455.13
443.24
535.48
490.14
486.52
486.37
534.52
533.73
458.4
457.03
527.2
469.51
539.56
535.25
543.79
512.08
535.69
452.53
472.18
476.09
513.24
467.76
496.56
453.4
476.07
418.21
417.35
407.33
405.46
446.21
381.99
421.74
438.56
413.24
374.88
380.68
395.43
292.76
281.61
286.6
293.11
292.81
239.92
303.77
245.33
226.2
238.19
261.23
223.13
219.18
170.64
202.81
138.93
168.52
112.68
67.75
113.18
82.21
92.4
80.52
4.85
50.98
11.5
-45.47
-62.8
-65.34
-26.91
-52.68
-65
-70.88
-140.65
-107.5
-144.68
-162.8
-155.58
-148.6
-180.61
-197.81
-283.74
-200.3
-219.29
-317.68
-293.83
-262.86
-276.28
-279.23
-371.42
-351.12
-342.85
-353.27
-415.09
-408.01
-420.27
-432.27
-428.98
-449.64
-418.55
-444.86
-479.34
-450.67
-425.68
-457.4
-461.15
-467.29
-476.62
-446.21
-529.94
-483.57
-444.41
-476.16
-462.13
-501.62
-451.56
-518.11
-530.07
-546
-527.5
-457.16
-453.96
-517.58
-508.97
-441.15
-453.31
-431.88
-442.73
1005.26
-502.44
-476.59
-423.54
-430.85
-413.82
-444.28
-452.89
-376.48
-392.23
-448.5
-343.86
-393.41
-413.22
-363.2
-400.36
-343.69
-333.3
-270.93
-273.06
-327.64
-307.5
-284.73
-307.89
-276.74
-231.46
-256.26
-234.6
-194.31
-157.84
-212.11
-122.71
-135.32
-149.13
-68.85
-90.17
-47.3
-58.2
-2.99
-43.61
-26.37
-2.51
21.03
4.38
55.59
70.03
63.77
100.25
72.15
116.59
131.07
149.32
176.02
152.92
181.28
190.06
252.1
244.99
224.26
273.28
260.03
269.94
317.71
315.05
345.22
373.53
385.61
332.73
346.57
357.59
375.5
413.28
451.29
419.27
459.49
442.61
462.16
456.27
482.72
484.03
443.83
488.39
513.28
526.51
446.05
503.02
526.97
493.04
474.37
533.26
532.24
479.65
503.74
524.49
528.05
525.25
497.71
493.17
500.6
526.9
518.16
463
483.33
525.11
498.36
510.16
508.43
461.84
451.8
402.08
441.02
466.19
422.6
455.61
435.56
441.61
431.38
425.04
384.94
349.93
340.57
351.55
314.81
285.76
271.53
273.65
307.15
254.36
222.51
264.67
183.37
254.04
212.61
131.16
160.08
162.27
109.63
83.72
81.03
99.02
102.46
69.76
46.7
43.77
28.92
-4.99
-57.68
-15.79
-33.82
-59.28
-31.24
-65.64
-79.22
-129.62
-126.57
-185.95
-206.06
-147.1
-190.77
-209.68
-178.66
-219.29
-195.91
-210.49
-312.07
-289.59
-317.09
-313.53
-322.13
-320.06
-358.34
-327.06
-342.21
-349.93
-356.37
-379.86
-400.59
-430.72
-384.88
-416.62
-393.29
-410.56
-456.07
-419.21
-438.5
-424.82
-444.1
-491.08
-441.38
-443
-518.47
-470.13
-481.87
-531.14
-489.25
-524.91
-480
-450.43
-464.24
-469.53
-468.1
-520.43
-475.45
-493.86
-530.24
-460.25
-499.42
-496.51
-509.18
-467.36
-413.49
-446.68
-448.21
-404.2
-402.98
-422.09
-389.73
-370
-444.88
-375.24
-378.76
-389.73
-392.74
-326.2
-395.33
-288.33
-295.35
-269.51
-253.07
-295.57
-232.94
-282.15
-247.09
-212.2
-273
-242.33
-204.28
-212.06
-135.05
-180.07
-108.55
-118.23
-151.29
-112.51
-99.35
-86.63
-16.2
-11.26
-48.23
43.35
-35.24
-19.16
63.69
8.75
23.81
93.19
53.45
126.79
109.66
128.55
117.66
185.53
163.43
167.98
165.13
183.49
192.85
270.73
251.84
259.11
261.42
260.66
295.23
312.59
289.58
375.07
391.45
389.75
426.97
382.95
448.84
410.05
461.43
411.93
409.02
410.93
493.55
422.22
485.49
448.07
434.48
449.43
487.62
497.45
513.36
515.83
479.93
455.97
529.77
477.61
514.75
491.26
507.36
506.54
509.16
525.04
458.27
480.25
492.62
503.29
507.36
457.58
451.85
430.68
456.68
460.31
454.83
424.81
454.77
399.17
411.93
453.78
406.99
388.15
375.24
366.32
391.88
403.78
378.88
338.97
339.08
283.82
322.97
1792.29
289.4
250.63
234.09
212.98
268.97
257.51
211.9
227.66
158.9
165.17
107.75
117.23
78.32
64.62
44.08
75.93
91.69
34.69
29.82
-16.01
-4.21
8.82
-83.26
-58.6
-107.69
-61.21
-76.13
-77.55
-161.49
-152.76
-194.57
-192.52
-139.89
-201.41
-218.1
-246.85
-261.99
-208.98
-263.27
-323.34
-275.62
-327.1
-356.29
-372.66
-306.2
-297.99
-313.53
-338.95
-363.41
-351.73
-380.54
-401.25
-445.47
-407.23
-464.17
-416.87
-452.4
-407.42
-436.02
-505.21
-437.35
-463.17
-498.26
-456.88
-488.26
-524.39
-541.86
-479.94
-510.9
-522.81
-545.6
-521.92
-524.71
-480.36
-545.87
-502.74
-495.15
-527.91
-500.41
-446.9
-465.79
-439.77
-448.59
-459.27
-432.47
-491.23
-406.93
-477.79
-417.01
-435.99
-388.4
-381.03
-400.65
-416.15
-400.5
-382.42
-326.55
-351.68
-339.81
-371.22
-356.09
-322.48
-325.81
-327.63
-249.32
-314.28
-282.07
-236.37
-224.02
-237.49
-186
-213.94
-126.37
-167.07
-182.09
-173.54
-78.58
-77.13
-102.91
-87.64
-50.57
-43.97
12.59
32.06
-30.79
52.56
50.99
75.98
103.13
59.41
45.39
126.72
110.28
139.4
166.89
185.86
184.43
154.83
223.06
264.11
277.04
208.89
300.66
313.07
282.21
254.77
352.95
331.33
294.03
324.19
314.53
379.43
358.05
435.65
437.95
363.9
395.78
377.55
423.38
452.65
454.21
478.62
458.68
473.18
431.74
488.51
1964.63
451.89
489.33
528.91
525.8
461.35
456.35
454.16
473.68
547.49
517.13
539.91
522.48
540.08
512.13
489.36
499.67
490.03
470.04
483.77
502.99
507.52
489.52
483.29
479.38
485.32
456.25
477.49
379.34
375.97
395.93
415.53
355.15
360.31
386.94
361.98
361.69
320.14
285.57
363.68
311.17
323.25
263.43
284.79
294.74
263.14
205.43
194.29
240.59
158.57
198.38
137.48
130.68
109.31
82.78
129.86
125.49
93.08
39.43
86.55
24.43
-22.07
-0.54
6.27
8.27
-87.05
-77.91
-126
-142
-110.15
-124.7
-152.05
-181.24
-205.84
-201.38
-231.58
-207.15
-233.31
-213.1
-269.53
-240.42
-273.23
-294.08
-266.69