-485.3
-418.6
-416.3
-411.55
-475.23
-379.85
-437.63
-382.75
-369.74
-437.28
-413.42
-389.27
-379.85
-337.01
-373.42
-362.81
-360.3
-292.9
-259.62
-324.31
-240.65
-294.05
-273.25
-222.41
-238.26
-214.36
-223.32
-131.63
-195.16
-159.74
-156.76
-77.13
-107.07
-40.13
-114.06
-22.65
-13.48
-5.81
-30.45
48.15
35.85
57.95
69.07
66.67
58
95.6
85.21
113.58
99.43
134.16
132.92
170.32
146.37
209.52
178.46
225.4
260.08
310.11
280.7
319.48
307.43
300.21
283.43
329.33
331.23
384.53
368.62
405.67
425.26
420.86
421.83
375.23
446.2
417.82
396.11
451.31
412.82
428.41
512.09
445.42
487.21
461.14
442.51
442.33
525.85
532.59
490.8
507.69
461.81
454.1
506.03
499.3
482.46
515.45
521.93
474.47
482.25
501.31
496.39
456.33
435.28
479.12
467.87
449.26
505.71
477.05
432.57
402.26
416.9
467.09
408.93
426.01
354.54
429.99
389.28
322.15
398.53
348.13
316.63
300.86
330.73
340.51
1820.64
234.19
245.38
263.45
245.6
264.33
211.16
224.4
199.78
132.27
163.14
171.72
167.23
128.96
145.07
63.1
81.39
17.56
16.95
26.26
-35.99
42.41
0.11
-6.37
-87.03
-25.22
-78.36
-71.25
-71.82
-171.66
-97.97
-136.83
-165.71
-225.89
-172.98
-159.75
-241.72
-232.61
-197.53
-295.61
-268.93
-324.78
-297.69
-297.45
-330.66
-327.53
-300.43
-351.86
-316.16
-412.3
-382.83
-352.93
-399.17
-409.91
-459.4
-463.31
-417.25
-429.89
-488.29
-477.64
-471.33
-505.81
-476.39
-470.23
-506.03
-521.91
-514.67
-484.48
-495.44
-495.37
-482.18
-544.45
-538.88
-457.68
-549.7
-500.16
-527.96
-456.83
-532.09
-541.16
-484.33
-473.86
-487.17
-480.87
-450.04
-476.63
-418.37
-406.42
-426.04
-400.75
-460.16
-419.78
-404.29
-405.99
-385.6
-435.84
-429.54
-363.71
-349.22
-391.59
-347.54
-281.27
-360.65
-334.31
-300.2
-314.85
-308.36
-247.07
-267.41
-199.74
-225.99
-194.25
-179.89
-164.15
-178.31
-197.86
-161.15
-92.88
-126.39
-92.48
-101.81
-77.66
-4.32
2.92
-5.39
17.65
7.58
80.02
7.58
57.05
110.92
70.87
153.66
87.93
121.3
191.76
143
198.56
147.09
163.05
169.31
213.38
272.42
223.19
268.59
255.59
283.85
332.46
338.25
366.28
338.55
349.46
327.15
324.96
368.4
431.71
450.16
416.12
443.13
475.83
388.59
456.15
421.48
472.56
487.94
477.48
455.05
1931.13
454.12
447.27
473.92
533.08
514.25
472.1
537.75
462.95
453.53
528.88
494.57
517.69
468.93
456.43
484.63
536.7
474.75
533.84
446.78
451.76
477.95
462.53
505.91
482.79
404.03
432.85
454.49
381.09
408.11
387.49
414.52
422.67
402.34
397.82
326.32
346.17
330.87
377.7
285.49
300.21
339.27
272.13
229.11
252.01
293.11
216.78
233.31
229.35
170.57
184.86
160.05
161.02
100.76
157.02
102.72
76.73
79.66
60.9
76.47
42.88
-11.27
-13.11
-31.65
-45.17
-13.13
-38.93
-39.98
-90.65
-139.67
-142.02
-150.68
-151.61
-132.06
-137.13
-184.17
-240.49
-181.98
-198.8
-258.89
-218.96
-282
-290.44
-332.78
-315.86
-269.09
-314.63
-324.52
-327.59
-335.71
-385.71
-350.28
-416.44
-445.38
-380.97
-449.64
-427.12
-432.44
-483.39
-471.53
-470.06
-477.48
-429.06
-426.35
-493.6
-449.7
-475.23
-516.13
-532.17
-451.61
-506.93
-518
-535.37
-449.71
-462.15
-507.83
-524.53
-503.57
-457.3
-537.04
-502.63
-465.13
-482.06
-501.92
-443.39
-449.3
-480.8
-430.62
-479.89
-439.01
-478.35
-444.32
-387.78
-426.5
-451.04
-434.22
-439.56
-373.34
-349.13
-348.48
-348.98
-384.91
-326.01
-334.74
-286.56
-264.51
-257.2
-308.16
-244.56
-287.49
-207.52
-199.53
-167.04
-167.24
-167.3
-151.12
-159.93
-118.08
-133.16
-152.44
-100.75
-71.37
-78.95
-92.12
10.58
-41.3
-49.9
1471.84
-7.84
79.16
66.73
57.19
96.38
75.29
77.29
101.79
128.2
168.04
192.44
159.32
182.77
245.02
210.78
212.14
241.9
303.45
313.82
267.68
332.41
322.23
281.5
301.6
331.49
333.52
327.36
337.25
380.84
427.94
376.91
408.54
393.13
424.6
409.94
495.34
441.02
430.57
423.89
491.46
483.28
522.94
467.05
532.91
442.37
514.37
489.83
472.58
476.89
481.03
456.55
498.52
498.99
519.32
458.91
470.5
487.38
480.88
500.79
488.75
450.18
445.02
453.01
468.43
493.19
473.05
403.84
421.4
419.74
467.1
454.65
438.62
421.56
426.85
379.02
359.17
402.09
375.68
376.97
317.84
317.33
283.76
263.87
261.83
294.85
219.93
279.03
176.97
169.42
211.53
189.1
151.79
138.53
102.84
173.2
124.27
100.39
71.03
82.22
75.1
29.11
5.42
-3.06
22.71
-49.97
-69.24
-36.33
-33.13
-111.79
-84.01
-113.03
-163.49
-153.93
-108.05
-172.07
-220.9
-158.01
-198.56
-264.38
-277.72
-231.58
-283.64
-253.5
-283.3
-304.73
-270.33
-360.97
-298.54
-353.21
-406.88
-393.07
-339.01
-341.34
-355.11
-421.59
-419.58
-437
-418.7
-393.8
-416.34
-435.95
-467.03
-509.09
-465.13
-481.83
-457.09
-447.2
-499.16
-524.84
-495.09
-499.78
-520.99
-456.73
-520.05
-539.39
-495.74
-536.94
-544.6
-448.8
-452.26
-488.42
-523.12
-506.95
-457.67
-511.43
1042.66
-473.18
-482.94
-426.15
-468.59
-454.82
-398.89
-468.92
-420.77
-415.65
-366.57
-379.19
-368.27
-360.3
-324.91
-341.64
-355.84
-290.34
-292.59
-315.85
-310.05
-302.29
-236.52
-290.81
-254.64
-239.18
-214.45
-232.11
-174.14
-205.88
-152.85
-180.98
-123.29
-118.96
-101.56
-58.72
-99
-44.15
-100.51
-55.84
-51.67
32.89
33.97
43.37
1.89
84.55
86.96
108.25
48.3
114.58
110.1
166.24
187.59
158.64
162.02
157.78
223.32
196.45
273.21
278.78
244.92
317.55
278.08
273
359.65
353.31
348.14
307.18
401.54
401.05
394.74
387.37
361.87
401.39
392.78
386.62
459.54
451.51
466.91
486.39
497.05
479.38
470
430.52
501.61
520.14
488.75
457.21
527.38
525.27
546.28
454.95
537.57
543.07
451.79
489.79
543.26
457.38
478.6
493.96
462.97
515.41
494.77
465.62
459.57
498.63
458.91
491.81
480.63
452.55
475.11
394.77
397.72
437.65
372.89
415.6
344.45
389.32
367.98
391.67
393.44
378.13
341.59
342.8
354.33
257.06
258.28
237.14
296.66
288.58
255.92
264.62
219.64
144.17
184.05
132.51
152.66
174.3
108.66
137.16
121.78
63.73
69.14
81.56
62.45
41.65
-1.94
14.93
13.87
-29.48
-17.12
-48.21
-97.8
-129.57
-133.75
-163.2
-103.4
-178.29
-172.13
-152.74
-198.64
-203.63
-202.21
-280.07
-224.69
-298.7
-239.79
1177.6
-264.55
-346.41
-356.1
-367.87
-312.44
-389.22
-382.5
-396.43
-394.14
-438.84
-362.77
-437.03
-387
-423.45
-431.01
-453.29
-470.75
-509.96
-500.71
-511.95
-467.64
-531.45
-527.68
-526.84
-513.59
-490.68
-512.24
-491.63
-543.65
-530.91
-530.97
-492.68
-525.04
-511.95
-527.19
-490.25
-510.88
-440.58
-442.71
-447.8
-443.29
-489.98
-443.92
-507.16
-486.47
-450.71
-457.07
-429.16
-396.38
-416.25
-429
-375.43
-415.67
-416.32
-408.21
-381.08
-374.32
-319.76
-283.9
-313
-261.69
-284.07
-240.97
-299.98
-304.19
-201.91
-270.79
-172.34
-248.06
-179.91
-167.46
-204.27
-175.16
-127.88
-168.13
-57.78
-130.24
-65.05
-87.3
-18.59
5.87
-21.67
-42.15
4.15
0.26
49.18
42.87
120.39
64.61
134.57
77.38
173.43
192.89
125.27
214.62
216.37
194.55
244.75
212.06
288.31
223.16
302.53
325.75
289.21
354.31
317.91
283.12
389.97
342.51
398.05
385.38
395.52
427.64
367.53
375.16
457.56
475.38
481.81
456.22
471.2
454.11
458.76
417.82
506.32
473.47
486.78
439.56
492.41
533.06
464.77
474.37
504.27
490.53
514.56
548.49
538.23
527.19
463.58
459.35
487.07
519.69
440.83
450.27
525.66
507.9
520.45
496.4
501.59
431.91
405.46
424.17
459.13
417.97
381.61
430.78
395.82
399.46
344.98
384.78
355.31
357.31
324.31
296.53
295
330.16
303.25
1745.12
284.79
302.12
271.68
205.73
228.91
158.99
167.42
142.22
195.59
147.08
107.58
99.56
140.31
121.79
108.49
40.16
83.88
71.65
33.4
-42.15
-23.55
-68.65
-57.57
-21.78
-79.33
-84.99
-146.2
-78.1
-120.71
-162.63
-186.27
-143.83
-194.21
-170.08
-247.89
-249.92
-253.68
-265.78
-300.36
-267.6
-304.88
-267.02
-352.44
-284.98
-323.05
-397.62
-388.98
-384.53
-335.1
-356.03
-411.4
-407.4
-398.34
-392.35
-482.11
-430.24
-488.32
-432.14
-443.31
-497.5
-520.27
-469.51
-526.71
-529.15
-455.66
-455.1
-454.8
-457.38
-497.77
-487.23
-540.1
-522.78
-546.32
-481.38
-488.94
-519.28
-536.31
-455.09
-489.2
-475.95
-449.58
-431.34
-488.54
-492.42
-444.83
-496.65
-474.58
-423.24
-435.06
-411.22
-395.79
-399.27
-427.23
-367.79
-351.47
-418.01
-353.44
-347.88
-387.79
-367.25
-337.21
-276.61
-311.77
-312.87
-289.76
-303.97
-282.12
-239.92
-260.31
-238.05
-225.54
-132.8
-164.85
-165.85
-129.85
-149.52
-152.06
-134.21
-117.5
-99.77
-86.02
-72.91
-25.35
-28.24
34.27
-4.02
16.98
95.46
24.65
97.32
105.04
76.21
91.8
165.27
123.37
187.01
209.37
189.12
203.18
229.94
218.11
268.46
255.12
323.97
289.2
339.39
336.27
326.45
330.23
348.7
348.97
369.3
399.25
346.93
381.8
373.93
412.2
405.65
461.64
459.23
405.99
497.7
503.24
503.37
468.19
491.87
476.97
528.22
465.7
515.17
479.85
473.82
547.33
460.09
473.66
478.27
546.47
483.41
513.57
523.25
534.06
510.94
520.87
512.37
530.62
490.31
445.08
515.68
455
422.43
455.78
487.09
460.67
385.62
469.11
379.32
405.56
411.57
383.23
396.95
386.58
381.07
306.6
298.42
356.93
293.59
286.75
330.99
244.64
274.5
293.13
235.8
192.8
221.67
228.17
151.07
181.37
203.69
138.54
105.38
147.27
69.53
33.9
51.8
88.18
52.4
-6.42
-41.8
35.96
20.82
-32.37
-5.54
-33.37
-89.64
-110.97
-134.14
-133.66
-144.58
-199.98
-195.3
-215.87
-237.41
-216.1
-233.48
-197.4
-255.63
-309.73
-265.55
-318.8
-271.19
-265.41
-337.75
-336.27
-356.08
-326.16
-337.33
-363.34
-393.21
-388.49
-403.54
-444.32
-407.99
-419.56
-434.43
-478.18
-420.36
-464.79
-442.19
-460.19
-456.84
-450.17
-510.79
-516.38
-454.84
-520.58
-516.3
-469.66
-512.86
-460.59
-461.84
-532.89
-478.79
-528.64
-527.35
-459.52
-521.26
-524.95
-478.73
-510.7
-512.3
-466.54
-432.03
-430.77
-489.48
-427.05
-482.3
-455.51
-396.29
-444.46
-435.47
-426.29
-349.81
-390.82
-363.94
-337.29
-397.65
-355.51
-290.48
-364.93
-318.78
-315.29
-329.07
-307.1
-303.48
-259.99
-206.75
-267.98
-224.9
-250.22
-187.9
-156.52
-135.9
-109.76
-137.62
-73.71
-111.01
-89.55
-37.96
-40.46
-47.18
-43.94
-26.56
1478.64
-22.28
7.58
34.74
25.76
85.95
141.14
65.38
127.48
154.83
200.21
138.3
178.77
230.84
201.75
176.91
195.51
215.75
251.51
284.48
336.73
337.81
353.18
335.71
373.73
366.28
378.95
319.29
329.32
370.11
368.26
412.43
411.38
448.68
385.06
483.2
427.76
432.09
431.48
501.33
499.46
439.21
505.17
474.6
491.6
447.19
505.2
500.86
541.75
518.54
495.89
492.59
522.35
548.76
483.11
514.31
476.41
447.08
496.78
480.07
493.9
484.51
461.36
438.22
444.56
425.66
443.67
452.42
475.12
440.88
436.23
391.08
390.29
417.39
368.84
421.25
376.93
351.93
373.76
383.32
333.13
267.96
325.47
275.7
305.56
237.96
253.21
289.95
257.27
183.59
181.69
176.25
166.83
135.28
177.26
155.87
70.13
129.81
61.88
77.36
47.37
92.19
13.98
-11.46
13.21
-54.19
-68.43
-41.14
-71.92
-59.44
-116.65
-101.41
-92.46
-174.69
-141.22
-187.75
-189.7
-208.64
-249.12
-260.56
-242.57
-286.36
-261.9
-274.96
-288.32
-326.43
-318.58
-344.79
-335.07
-315.95
-320.91
-327
-384.05
-409.28
-407.6
-425.7
-397.31
-411.32
-476.51
-398.08
-435.64
-439.39
-506.38
-444.62
-465.73
-464.24
-464.68
-435.35
-492.89
-464.12
-503.55
-462.56
-519.16
-547.18
-479.17
-470.94
-466.3
-536.93
-498.84
-472.96
-450.04
-539.18
-448.76
-489.54
-510.52
-437.49
-441.83
998.67
-516.25
-473.31
-487.76
-403.37
-430.76
-475.34
-398.46
-453.34
-398.29
-372.39
-347.67
-341.06
-398.08
-386.97
-384.81
-296.47
-348.43
-277.07
-316.62
-253.46
-313.22
-266.54
-254.6
-209.07
-238.14
-228.34
-179.18
-164.7
-152.49
-179
-112.08
-149.32
-77.68
-89.36
-117.54
-78.13
-57.12
-57.96
-24.9
-62.38
35.04
22.01
-16.52
55.33
73.88
32.07
112.16
95.52
116
110.69
196.15
146.63
215.3
210.36
246.59
184.05
230.85
283.52
277.3
295.41
246.57
263.13
317.9
297.56
376.49
383.08
307.19
344.21
415.12
382.86
406.61
414.61
408.68
408.01
450.28
422.5
421.71
416.14
417.85
458.35
494.59
430.92
469.56
461.11
479.36
535.52
488.07
531.59
489.24
459.3
493.14
493.47
499.89
476.55
467.17
496.72
527.22
500.11
524.81
518.58
480.3
525.02
428.62
450.27
512.44
476.02
489.7
409.11
492.5
483.77
450.58
427.39
375.52
449.8
362
372.38
391.3
403.36
319.14
333.65
382.03
310.7
272.53
265.65
260.57
292.35
254.42
283.06
250.77
188.24
214.96
169.77
182.07
125.87
141.83
132.96
97.38
80.97
108.72
52.8
110.53
96.35
74.24
-25.48
23.5
-62.56
4.38
-21.51
-94.06
-78.04
-71.96
-146.03
-165.87
-172.51
-120.4
-174.46
-175.53
-211.71
-156.14
-182.68
-236.31
-227.41
-208.36
-230.22
-281.9
-314.04
-353.21
-280.95
-330.24
-377.8
-398.86
-355.04
-371.12
-423.85
-355.34
-425.59
-435.88
-448.67
-419.96
-481.28
-414.57
-447.55
-442.12
-461.57
-440.84
-454.27
-431.08
-508.62
-454.23
-484.59
-448.06
-473.57
-514.19
-534.56
-463.93
-503.94
-457.22
-473.94
-503.97
-470.5
-509.23
-473.71
-492.56
-494.52
-524.13
-437.29
-503.91
-437.84
-467.48
-459.71
-483.15
-483.67
-426.02
-454.91
-408.94
-453.36
-441.69
-421.41
-399.27
-413.58
-402.62
-391.5
-394.78
-307.04
-301.95
-329.09
-308.72
-267.3
-286.35
-315.82
-239.6
-212.8
-223.73
-217.57
-220.33
-215.82
-218.5
-211.19
-107.73
-157.72
-83.02
-100.75
-105.38
-98.33
-77.25
-86.35
-6.1
-29.83
28.23
47.38
7.96
-1.25
30.51
105.44
125.71
138.67
77.47
83.88
109.11
108.72
146.73
236.08
168.88
189
206.06
220.55
293.08
281.54
249.44
308.7
305.07
323.52
335.36
340.12
393.68
386.92
377.89
417.77
379.77
420.2
379.68
419.04
463.07
481.03
476.58
490.2
477.64
468.12
420.58
465.65
508.78
527.57
488.96
513.96
525.68
499.1
467.26
478.8
460.02
520.45
520.17
462.12
495.57
452.26
505.63
459.12
452.41
490.62
483.23
433.93
489.35
482.5
479.41
428.1
434.21
413.2
457.16
418.57
427.66
423.23
411.95
379.57
409.33
409.28
355.31
363.73
367.07
330.79
362.21
297.73
285.65
257.72
1778.75
304.3
273.55
283.64
282.4
200.69
244.23
217.48
203.21
172.6
183.29
147.83
170.94
77.81
112.41
52.91
68.73
31.83
41.22
25.07
-12.04
1.09
-46.57
-44.93
-18.01
-99.06
-46.08
-124.24
-133.04
-149.96
-113.23
-159.21
-138.85
-154.03
-176.58
-249.05
-204.47
-275.71
-239.89
-308.12
-286.39
-314.66
-303.76
-327.16
-288.55
-319.45
-386.19
-370.02
-333.41
-354.01
-345.92
-350.87
-454.68
-436.69
-440.24
-473.77
-470.79
-407.62
-414.55
-414.31
-488.48
-501.46
-486.05
-524.46
-433.96
-451.03
-492.83
-511.19
-489.8
-482.91
-513.16
-449.65
-469
-511.74
-539.95
-469.23
-509.03
-482.92
-491.25
-517.44
-509.73
-466.6
-496.68
-521.24
-495.43
-514.82
-412.75
-493.58
-488.08
-411.14
-473.51
-379.65
-398.08
-376.43
-379.49
-434.25
-393.26
-330.8
-387.21
-325.3
-338.6
-308.49
-360.12
-265.04
-311.79
-247.58
-291.54
-233.23
-233.22
-263.1
-178.96
-225.03
-155.09
-150.36
-167.58
-160.09
-95.57
-67.09
-103.81
-55.05
-92.56
-34.36
3.71
-25.19
-41.17
52.64
42.38
12.82
13.72
47.84
110.77
51.5
87.26
85.39
128.88
158.61
213.38
190.08
223.1
258.89
239.73
272.66
221.82
294.35
237.66
332.08
329.6
284.86
368.57
348.94
316.86
313.12
320.36
418.6
394.74
436.2
410.08
389.22
383.32
387.44
419.74
422.68
492.68
454.96
510.57
438.5
430.47
1975.51
465.66
514.65
470.86
528.7
493.75
481.77
473.96
508.33
549.64
452.85
472.02
545.47
459.48
469.81
521.61
490.13
488.61
441.63
487.09
464.28
424.32
430.19
416.2
444.45
447.73
420.89
440.86
392.92
412.49
362.53
427.6
410.34
359.53
368.18
346.87
314.07
293.04
324.24
349.72
348.99
255.79
257.28
259.44
249.38
194.04
195.66
189.81
203.86
221.85
209.28
162.25
156.57
132.36
140.23
127.83
96.5
119.08
30.4
27.97
23.03
51.76
-15.04
-33.36
9.85
-31.14
-58.67
-101.27
-124.35
-119.51
-131.31
-170.63
-196.85
-127.36
-130.24
-143.95
-193.53
-240.63
-239.33
-232.47
-214.1
-272.85
-311.18
-281.77
-345.39
-306.51
-305.08
-295.08
-342.42
-412.7
-346.43
-404.9
-396.36
-355.25
-409.52
-380.83
-441.55
-400.45
-417.81
-439.64
-442.72
-422.1
-420.81
-472.88
-506.8
-497.71
-467.56
-533.37
-481.81
-542.87
-531.53
-466.95
-468.88
-472.13
-475.6
-501.49
-483.99
-545.66
-497.57
-471.15
-488.59
-441.76
-439.31
-468.2
-465.52
-453.13
-475.45
-497.71
-418.98
-412.02
-395.39
-452.2
-415.26
-437.1
-420.37
-403.39
-393.18
-369.92
-410.8
-322.79
-400.43
-292.32
-319.97
-329.46
-327.43
-312.49
-264.97
-289.08
-285.04
-250.62
-187.98
-216.49
-235.69
-192.11
-208.48
-209.33
-174.2
-91.05
-112.07
-67.87
-137.28
-40.32
-74.6
-47.44
2.84
-11.86
16.78
60.32
68.33
71.13
34.29
88.12
54.97
151.28
109.18
145.63
126.03
212.28
200.05
146.89
252.25
237.97
198.85
284.65
210.56
308.47
257.82
287.14
268.51
339.3
357.89
384.27
346.54
405.31
390.76
399.86
435.96
380.3
418.96
453.74
419.82
396.36
395.19
452.56
474.24
440.79
432.83
497.11
517.47
484.28
507.01
473.25
531.63
495.29
503.94
529.45
468.3
468.25
478.4
473
527.66
467.22
510.44
447.58
504.83
510.71
457.58
528.82
429.56
481.18
436.55
438.75
424.72
474.26
407.8
485.76
454.15
440.31
426.7
426.34
366.84
335.29
367.01
367.01
341.21
303.05
336.42
369.39
332.61
311.27
279.59
310
272.68
204.25
208.91
233.94
175.56
233.64
218.44
168.4
178.42
171.98
80.9
60.07
59.86
89.75
17.88
12.4
49.42
30.71
32.17
-24.15
-75.95
-77.82
-87.38
-59.03
-45.67
-125.55
-165.01
-149.31
-159.9
-205.92
-168.61
-231.33
-190.58
-255.46
-233.85
-287.07
-245.71
-242.45
-276.86
-340.12
-280.03
-275.25
-312.5
-334.68
-325.69
-403.36
-408.04
-349.77
-401.59
-429.98
-409.66
-431.77
-464.09
-482.73
-466.33
-410.06
-498.18
-477.05
-476.02
-468.83
-453.37
-450.98
-447.13
-468.51
-476.48
-476.88
-498.56
-462.42
-472.04
-486.33
-491.82
-459.55
-546.5
-535.14
-539.04
-454.19
-457.1
-474.05
-443.86
-458.34
-497.58
995.26
-457.88
-497.27
-436.48
-437.43
-445.28
-433.22
-476.74
-432.74
-452.46
-367.35
-423.34
-378.71
-379.82
-370.14
-337.12
-356.43
-348.52
-304.54
-336.59
-256.07
-303.38
-248.51
-221.03
-202.46
-233.37
-177.88
-203.66
-231.09
-227.1
-120.83
-163.58
-107.53
-98.99
-72.77
-53.87
-125.38
-113.18
-17.14
-43.1
29.76
-1.33
50.84
14.69
86.45
74.84
111.65
91.59
101.72
129.78
88.32
151.02
157.3
215.16
216.29
244.95
213.85
230.27
242.67
221.27
254.23
277.84
320.71
261.74
289.36
343.66
313.92
330.85
318.61
351.44
394.76
370.38
387.93
390.23
392.07
433.61
446
399.57
398.29
468.32
450.29
465.06
431
486.08
507.78
498.61
460.18
454.95
494.31
509.95
493.33
525.69
494.84
491.86
472.5
481.13
531.3
455.83
542.35
522.47
533.09
494.52
481.54
514.88
451.34
502.36
418.15
448.03
424.47
428.24
456.16
405.3
382.1
423.28
451.98
380.67
356.68
336.8
396.3
361.58
332.83
328.78
281.31
297.93
317.78
269.17
265.8
217.65
217.15
257.39
253.89
203.38
165.8
169.19
163.12
141.14
189.22
144.23
162.05
65.5
132.41
78.37
93.58
37.43
14.9
21.19
30.56
-27.19
-34.26
-56.2
-77.85
-101.35
-95.84
-71.45
-150.51
-168.43
-204.17
-149.41
-164.9
-151.92
-175.07
-247.21
-189.14
-248.01
-258.5
-318.83
-247.43
1206.15
-315.14
-305.68
-324.38
-320.27
-401.83
-377.06
-410.83
-400.6
-383.31
-414.82
-380.95
-459.66
-386.5
-466.19
-436.21
-417.76
-478.86
-506.74
-486.56
-521.76
-489.59
-459.59
-503.95
-477.14
-444.4
-518.1
-482.54
-543.71
-525.9
-486.75
-487.33
-487.46
-451.75
-512.48
-540.96
-540.6
-503.26
-478.1
-514.38
-456.78
-509.27
-426.34
-512.3
-458.31
-501.45
-440.8
-466.33
-406.85
-465.93
-446.32
-451.34
-353.77
-342.26
-405.85
-399.42
-362.9
-337.19
-344.95
-293.74
-292.08
-323.38
-269.73
-231.61
-285.48
-247.16
-284.69
-213.73
-218.31
-199.9
-191.83
-166.67
-192.1
-134.39
-167.13
-88.86
-137.11
-99.83
-63.34
-84.24
-35.74
11.3
15.39
24.51
12.57
38.25
89.88
34.91
52.3
61.77
69.74
84.85
89.47
160.36
211.17
175.04
217.28
224.56
224.45
281.36
216.6
285.7
228.12
285.57
288.78
275.31
333.54
334.82
361.46
323.4
364.88
339.52
424.09
365.55
389.37
440.17
417.08
387.81
397.53
466.9
407.95
444.43
416
466.4
469.91
468.08
444.56
535.56
514.49
459.98
537.09
514.32
452.07
494.42
536.38
491.04
527.57
489.68
451.16
533.69
525.89
540.12
517.63
528.66
452.42
514.05
459.51
473.74
496.73
457.94
493.67
449.84
422.29
452.08
393.61
386.47
439.46
371.08
418.09
419.66
337.1
366.34
339.23
323.31
327.01
323.2
274.01
306.07
311.04
254.27
209.18
207.95
239.16
206.71
221.62
185.74
167.15
188.01
92.37
152.22
64.53
83.28
94.49
40.06
42.11
50.39
-4.88
-23.62
17.69
-69.73
-21.77
-82.7
-91.11
-59.98
-86.25
-121.26
-133.63
-173.09
-203.17
-212.34
-231.18
-179.62
-259.29
-283.2
-276.82
-225.24
-293.34
-285.28
-331.09
-337.63
-300.83
-311.54
-347.11
-393.24
-321.83
-367.54
-340.34
-350.91
-394.39
-430.75
-447.79
-402.4
-472.71
-472.9
-490.15
-461.5
-442.36
-496.33
-521.09
-440.37
-443.38
-480.36
-472.6
-501.8
-524.15
-533.89
-464.83
-537.15
-453.26
-527.3
-480.2
-464.88
-461.73
-502.21
-497.2
-482.93
-463.08
-449.93
-515.43
-496.46
-473.5
-467.21
-446.73
-453.16
-466.99
-417.3
-425.3
-476.13
-402.8
-448.46
-352.95
-386.63
-408.3
-368.05
-395.62
-360.37
-296.97
-281.16
-280.82
-294.17
-247.51
-269.43
-284.6
-261.1
-276.52
-281.21
-200.42
-223.42
-191.43
-150.38
-133.86
-117.62
-126.21
-111.93
-142.96
-128.96
-70.52
-63.1
-0.08
15.53
-22.27
22.51
36.41
10.14
38.96
67.83
110.08
88.07
62.12
152.07
127.75
116.23
162.27
148.29
156.48
206.3
221.64
256.9
249.06
281.01
241.6
265.14
319.38
270.39
271.86
341.56
296.78
309.08
324.78
344.38
396.61
354.38
359.83
439.87
440.18
468.33
398.41
395.54
451.15
489.34
495.33
453.76
428.33
2013.68
510.93
449.7
467.91
467.87
490.49
486.38
504.07
516.94
461.75
521.32
522.35
526.93
496.14
491.48
477.11
459.75
454.08
466.07
530.33
481.22
438.29
441.48
440.21
458.62
488.71
403.23
424.08
425.84
428.85
448.2
396.79
361.54
395.39
410.67
361.48
320.84
351.94
349.48
329.7
292.96
331.25
253.45
277.42
273.21
295.19
197.85
256.55
196.74
175.98
159.6
173.95
138.23
92.5
77.13
139.26
65.77
113.06
103.86
24.21
-4.96
29.27
-29.83
9.71
6.34
-68.54
-100.97
-39.92
-135.68
-73.37
-148.36
-94.11
-193.91
-204.28
-172.79
-211.14
-155.07
-232.39
-257.36
-291.33
-254.65
-297.44
-293.44
-305.8
-316.69
-307.64
-359.72
-347.77
-303.19
-377
-328.86
-377.29
-371.38
-428.92
-370.64
-413.18
-450.07
-421.02
-427.58
-412.38
-499.62
-433.82
-509.02
-521.46
-465.44
-436.37
-494.36
-443.7
-531.59
-518.24
-534.69
-453.25
-521.08
-526.52
-467.97
-462.77
-484.91
-466.63
-462.25
-455.52
-518.18
-518.04
-523.75
-527.5
-525.06
-480.29
-428.48
-479.49
-461.92
-478.38
-485.81
-419.84
-467.8
-420.03
-383.35
-412.2
-415.69
-413.21
-379.67
-345.79
-346.89
-337.09
-326.48
-364.1
-316.89
-278.78
-301.02
-310.67
-231.9
-297.66
-258.91
-213.01
-188.55
-165.29
-214.94
-169.42
-187.01
-114.25
-156.42
-156.78
-82.35
-57.36
-114.01
-10.3
-17
-57.32
-31.85
1518.97
63.25
-1.66
92.31
64.6
53.43
117
138.15
150.01
181.42
150.99
156.19
173.57
233.11
174.42
184.45
218.42
251.74
243.14
231.71
336.06
347.64
266.22
331.55