-523.7
-522.08
994.8
-500.2
-494.36
-451.04
-480.05
-488.66
-427.96
-423.22
-416.99
-427.33
-441.32
-437.32
-368.57
-418.63
-371.99
-350.35
-373.99
-304.13
-318.43
-358.4
-307.24
-240.44
-300.4
-304.69
-278.5
-200
-251.61
-213.09
-231.97
-151.13
-174.44
-148.03
-172.7
-84.31
-105.14
-77.54
-76.11
-80.99
-98.27
-81.12
-27.51
8.73
55.13
44.05
65.17
94.93
95.75
110.63
147.82
116.7
108.89
188.02
193.56
210.93
183.29
171.65
261.07
233.68
267.88
295.8
236.6
282.65
259.99
348.65
355.02
359.7
363.96
310.52
358.38
345.27
396.17
433.46
416.98
392.6
401.83
419.35
472.06
480.69
435.37
485.11
431.43
509.8
429.63
435.65
492.13
532.95
463.42
467.76
443.77
530.54
456.42
544.13
525.4
501.22
515.18
549.31
467.24
511.55
480.22
514.41
460.94
528.1
519.51
484.25
440.28
451.3
488.29
431.61
477.01
420.91
471.36
386.11
407.83
394.39
357.41
423.6
400.09
332.67
335.94
398.2
321.3
355.47
284.46
277.79
351.22
316.29
309.52
300.21
245.58
227.39
219.69
215.56
170.43
166.37
180.23
184.35
100.22
168.17
72.05
66.66
132.17
20.93
64.12
84.7
-9.04
18.61
18.7
-12.88
-5.93
-94.74
-35.99
-130.11
-120.16
-127.99
-165.01
-105.57
-111.05
-192.76
-137.97
-205.67
-180.75
-258.05
-217.37
-274.96
-306.94
-251.25
-278.93
1150.84
-348.82
-296.78
-357.91
-337.93
-398.9
-322.99
-427.81
-396.24
-444.73
-374.39
-393.38
-472.74
-443.26
-423.57
-437.76
-449.44
-477.07
-417.01
-496.57
-473.24
-447.33
-484.05
-461.02
-524.13
-453.64
-540.66
-479.62
-525.86
-538.32
-535.91
-470.25
-525.4
-495.33
-504.33
-495.33
-537.79
-456.77
-475.11
-475.81
-498.63
-444.67
-424.94
-427.15
-504.72
-437.56
-434.66
-419.73
-462.2
-433.73
-461.08
-386.17
-360.25
-347.76
-335.3
-386.87
-338.74
-306.7
-309.3
-333.51
-308
-337.14
-269.53
-253.16
-256.24
-209.97
-248.55
-242.97
-215.67
-240.18
-139.8
-208.15
-144.18
-164.69
-85.31
-157.94
-57.4
-132.75
-31.45
-39.55
-35.17
11.77
-33.61
33.13
-23.61
32.1
86.05
78.48
85.26
70.52
154.75
116.5
181.46
185.14
126
148.52
241.66
177.06
201.89
261.37
291.45
248.36
265.28
311.18
338.8
319.42
282.44
378.33
316.37
390.85
385.32
384.34
346.59
422.16
414.01
370.8
448.17
440.03
457.01
465.4
405.99
472.06
481.12
512.66
473.92
513.46
445.5
489.63
449.54
519.45
542.97
535.87
497.89
527.84
460.36
470.39
458.84
494.8
475.08
521.9
541.8
503.7
454.48
519.68
470.79
457.84
432.73
510.01
413.12
497.83
428.03
453.93
397.9
445
442.79
436.44
380.75
376.57
380.64
347.42
363.89
369.75
363.53
313.8
305.5
263.02
1790.41
268.19
272.44
223.51
270.56
194.39
258.59
249.15
211.05
140.05
173.5
144.16
122.5
67.3
151.57
106.37
71.46
91.2
1.49
-5.05
-35.58
-30.54
17.69
-65.97
-66.68
-25.57
-73.67
-139.86
-57.59
-78.65
-136.87
-136.7
-204.8
-174.31
-195.71
-256.65
-215.15
-241.75
-284.16
-286.17
-238.2
-302.52
-296.2
-287.76
-283.18
-353.23
-323.25
-390.13
-394.01
-372.84
-413.29
-381.54
-425.19
-445.16
-424.91
-441.48
-479.44
-445.65
-458.08
-476.78
-416.03
-483.94
-466.95
-499.38
-464.65
-457.69
-494.14
-464.55
-510.18
-530.02
-452.85
-456.02
-518.76
-465.56
-505.45
-519.41
-535.72
-470.24
-535.02
-477.54
-484.66
-529.24
-452.98
-481.27
-435.11
-425.32
-458.45
-473.93
-436.05
-411.81
-475.18
-471
-469.37
-377.42
-369.71
-420.35
-361.08
-324.68
-404.42
-349.33
-360.1
-303.41
-315.55
-339.76
-297.9
-268.36
-281.84
-236.74
-280.46
-264.44
-213.71
-190.13
-146.09
-205.76
-119.95
-107.11
-177.21
-144.9
-146.09
-124.96
-83.18
-87.08
-66.97
-55.48
-4.86
-36.73
43.06
-1.1
79.56
85.48
86.92
118.57
151.17
162.97
86.72
143.09
136.82
184.74
231.49
167.82
226.98
193.07
288.79
220.36
287.36
299.77
273.26
301.07
338.68
289.18
341.61
303.83
361.63
337.92
384.49
405.83
371.63
434.32
385.08
420.84
439.2
490.5
482.95
477.87
454.19
501.4
453.62
2008.71
476.83
527.29
467.14
451.33
498.49
513.3
482.89
485.21
459.56
489.16
510.58
524.51
536.63
540.76
496.33
518.08
527.13
471.75
467.85
520.75
522.39
456.06
463.37
436.42
407.89
438.93
420.34
448.57
376.13
459.16
413.15
384.51
372.15
384.71
359.06
390.47
380.9
357.09
348.1
339.55
322.16
243.05
310.67
254.38
271.76
188.54
230.34
216.16
230.28
142.94
201.67
182.24
96.44
89.88
147.16
129.13
88.48
67.68
31.36
7.73
48.9
33.19
-58.07
-57.72
-90.44
-38.26
-40.38
-47.29
-134.95
-90.21
-103.91
-107.61
-139.67
-167.4
-155.58
-208.56
-232.2
-263.2
-237.7
-289.77
-280.68
-291.56
-284.17
-275.47
-280.36
-377.33
-336.52
-312.16
-346.12
-417.82
-332.77
-381.52
-374.49
-442.34
-373.74
-459.43
-394.27
-400.54
-470.53
-464.22
-475.54
-496.71
-478.12
-432.87
-465.45
-519.1
-535.89
-453.13
-461.06
-494.48
-521.07
-529.56
-507.01
-542.47
-508.38
-522.83
-520.55
-487.47
-534.41
-496.93
-532.41
-440.24
-516.73
-477.05
-453.83
-441.68
-497.16
-431.4
-485.1
-436.96
-439.95
-423.96
-469.85
-379.71
-365.74
-383.9
-411.65
-331.58
-382.89
-367.16
-308.08
-289.49
-314.78
-290.64
-308.41
-306.64
-283.25
-251.71
-204.67
-198.48
-188.49
-246.44
-159.52
-159.08
-209.15
-173.83
-107.89
-156
-140.76
-77.44
-116.7
-83.59
-3.64
-78.08
-51.41
20.61
1460.39
26.68
32.67
104.95
51.26
86.54
89.97
144.24
165.5
161.44
201.95
151.66
224.89
230.8
192.33
201.59
259.08
220.25
262.37
289.32
317.73
291.27
298.57
304.8
351.4
374.07
356.97
415.29
421.66
414.81
397.57
425.66
407.19
402.64
393.96
476.01
440.23
461.35
483.26
465.42
424.33
470.63
456.18
531.4
531.05
514.84
508.43
515.1
461.3
542.72
479.96
489.33
508.83
530.79
525.66
545.29
465.33
466.47
458.77
492.32
446.85
439.36
433.07
491.92
499.96
461.91
411.7
433.08
451.88
455.13
451.5
404.77
405.92
403.63
366.37
422.66
346.26
313.04
320.38
306.5
302.32
282.75
321.18
278.5
247.06
295.44
225.53
199.28
245.34
176.99
199.18
200.04
203.11
184.57
186.58
138.34
101.81
77.85
104.6
36.09
29.62
18.21
33.79
-28.07
-55.69
-69.72
-31.76
-92.4
-47.16
-123.86
-50.78
-66.4
-143.59
-189.16
-129.22
-146.64
-181.78
-172.29
-170.34
-214.02
-210.49
-236.95
-222.87
-318.99
-245.18
-282.1
-320.28
-368.48
-380.63
-391.62
-401.37
-400.15
-333.61
-394.71
-427.09
-396.78
-454.21
-389.78
-437.47
-429.12
-464.25
-410.17
-426.32
-497.66
-431.38
-468.3
-510.21
-532.21
-514.27
-524.6
-524.38
-532.39
-467.04
-480.62
-502.73
-526.38
-492.01
-486.49
-508.9
-455.31
-543.51
-513.26
-484.82
-518.51
-455.27
-517.21
1065.26
-510.03
-447.25
-467.15
-481.28
-461.56
-399.98
-455.01
-439.83
-394.37
-432.98
-365.2
-424.11
-339.15
-392.73
-386.75
-334.11
-386.96
-295.1
-302.91
-296.92
-339.32
-266.94
-278.5
-268.19
-254.63
-277.44
-210.21
-164.52
-142.96
-181.39
-114.83
-151.82
-126.91
-128.25
-69.8
-38.03
-98.93
-51.48
-35.39
-6.33
10.78
-6.16
41.83
28.69
89.82
33.95
123.11
113.76
74.83
160.76
130.17
200.65
160.22
166.76
195.55
222.41
255.52
191.6
219.06
289.38
285.63
298.75
257.99
361.87
338.04
309.97
322.05
325.93
353.93
400.68
367.6
360.06
369.67
392.88
443.77
387.43
440.86
419.91
418.44
447.68
461.33
515.26
502.64
508.01
466.79
437.96
443.8
465.41
487.14
475.17
537.63
486.51
458.19
501.18
482.72
525.06
470.56
489.97
504.63
505.05
492.1
488.19
469.78
499.33
434.38
468.32
440.29
436.81
409.02
451.16
387.24
376.65
458.56
432.15
352.54
428.36
353.36
408.06
353.22
307.61
350.04
336.63
363.62
334.08
337.09
301.93
316.9
247.17
244.1
233.19
192.74
240.43
178.06
156.53
136.31
138.86
106.91
147.11
112.28
51.02
55.47
15.53
20.03
44.05
-9.65
-48.33
-23.34
-11.36
-62.4
-30.96
-61.04
-131.05
-93.23
-165.72
-132.98
-133.07
-149.06
-145.23
-170.46
-199.53
-212.4
-283.23
-264.29
-235.25
-294.07
-318.89
1159.36
-334.79
-325.85
-369.53
-356.06
-307.95
-330.06
-340.85
-369.31
-364.95
-359.12
-459.77
-464.66
-472.66
-422.24
-403.33
-485.55
-435.21
-507.96
-444.61
-513.28
-488.69
-504.13
-478.35
-471.65
-449.87
-447.4
-539.8
-486.86
-537.83
-547.55
-526.11
-544.57
-530.35
-537.27
-524.37
-475.48
-524.89
-532.47
-449.38
-516.26
-474.44
-433.96
-459.27
-469.38
-486.1
-464.23
-440.41
-425.24
-437.09
-404.28
-373.47
-403.76
-424.59
-428.53
-398.13
-351.19
-304.47
-322
-320.7
-301.28
-303.39
-287
-303.06
-262.71
-308.24
-218.37
-225.52
-232.08
-181.81
-215.4
-191.85
-134.01
-156.72
-180.37
-102.1
-78.55
-104.67
-27.91
-92.75
-55.76
19.74
20.38
34.61
-21.78
68.26
66.52
42.47
61.4
135.76
126.85
145.9
86.89
179.84
142.97
210.17
234.65
219.16
262.84
223.61
219.72
220.82
235.82
285.11
300.24
269.08
366.68
298.53
357.03
373.11
370.78
407.03
378.63
419.4
403.3
384.72
403.07
423.37
414.65
441.18
483.66
408.89
473.06
486.34
507.89
463.89
493.99
513.16
520.31
523.94
490.26
501.61
539.52
524.64
479.61
453.58
500.38
540.43
518.24
528.24
479.34
515.01
530.53
481.83
491.29
461.63
462.09
433.92
453.56
482.11
411.41
431.53
430.68
425.62
392.98
363.74
395.58
381.09
364.85
331.07
367.53
373.16
303.69
333.38
277.15
284.54
328.06
1768.6
280.76
266.9
229.63
235.93
240.56
159.82
189.03
148.45
155.29
114.84
122.57
159.98
94.88
96.36
109.93
68.16
45.36
36.07
5.75
38.66
-21.79
-20.99
-8.69
-83.71
-91.64
-98.21
-110.88
-119.99
-94.84
-142.14
-175.88
-216.02
-190.87
-245.85
-177.49
-224.75
-272.85
-255.01
-230.92
-318.71
-320.09
-276.63
-333.23
-315.9
-374.36
-307.04
-392.87
-400.67
-364.32
-359.13
-449.13
-448.34
-423.59
-443.25
-479.44
-397.27
-460.41
-435.24
-504.8
-509.03
-507.76
-432.16
-498.51
-463.76
-507.02
-491.49
-543.38
-475.75
-465.06
-525.18
-533.54
-528.81
-526.8
-533.19
-524.16
-483.49
-487.4
-501.62
-461.18
-479.69
-446.02
-466.2
-425.76
-442.36
-467.14
-438.13
-430.13
-404.95
-399.87
-471.64
-461.28
-422.9
-401.03
-419.71
-400.55
-352.59
-400.76
-314.58
-324.7
-294.1
-329.28
-324.87
-313.49
-239.08
-314.22
-277.69
-203.91
-205.5
-221.97
-236.34
-152.36
-175.23
-154.91
-147.39
-92.63
-109.32
-65.18
-127.56
-105.34
-25.9
-68.78
-23.19
-41.92
12.96
21.64
51.15
41.8
104.35
78.29
81.09
100.9
86.72
126.72
115.61
191.29
130.19
175
234.24
224.3
210.95
242.72
265.85
224.92
291.19
319.92
276.84
293.02
347.62
364.07
343.58
355.66
323.77
409.96
388.66
363.84
451.91
425.85
461.95
447.91
407.9
434.47
493.21
464.06
509.04
485.05
434.7
484.59
458.84
526.41
464.23
481.26
537.19
535.57
484.74
455.85
455.16
543.74
502.75
505.89
522.67
447.36
518.6
465.92
483.61
526.32
452.79
493.89
440.16
483.54
454.07
436.44
446.12
421.52
419.45
379.64
392.54
405.89
405.76
435.34
390.01
338.13
399.95
315.75
342.58
295.97
299.58
315.73
271.02
250.71
289.72
208.38
223.94
274.24
221.62
228.88
142.9
159.57
180.44
98.77
112.48
116.62
130.4
43.3
28.99
8.41
-5.08
49.74
-7.64
23.03
-54.44
-40.76
-48.59
-30.65
-36.39
-58.68
-109.26
-169.28
-155.49
-126.89
-143.86
-175.33
-223.16
-238.19
-257.41
-281.64
-267.73
-216.53
-321.4
-289.64
-334.99
-351.35
-298.72
-351.82
-376.93
-369.91
-409.79
-364.69
-383.41
-406.57
-383.26
-436.82
-385.93
-447.99
-429.41
-469.8
-436.48
-442.06
-442.7
-517.33
-510.09
-471.11
-443.1
-497.86
-495.15
-444.41
-494.96
-521.13
-481.39
-451.98
-494.43
-541.59
-542.02
-537.93
-541.97
-519.96
-485.2
-489.43
-506.47
-471.32
-464.36
-490.47
-445.11
-510.44
-460.61
-419.24
-443.31
-421
-426.67
-460.73
-385.56
-437.43
-357.31
-349.41
-411.84
-418.25
-396.76
-392.5
-313.8
-327.41
-353.29
-292.14
-334.83
-296.95
-285.66
-237.15
-215.59
-190.95
-247.76
-172.48
-161.69
-134.1
-190.63
-189.49
-167.5
-143.88
-118.25
-102.53
-77.52
-50.06
-70.8
-38.52
-24.39
1525.46
16.19
41.06
63.62
77.8
38.01
59.92
150.33
170.74
166.52
181.09
215.85
136.13
242.09
161.93
201.89
198.83
265.2
222.56
269.97
295.55
347.34
280.91
355.2
291.37
304.62
384.36
383.49
371.52
415.5
362.66
391.33
364.57
435.13
476.93
403.75
463.51
492.9
486.38
450.77
421.39
465.45
488.3
496.74
533.93
462.91
515.26
449.51
454.79
535
497.05
511.19
470.68
545.7
468.37
507.28
519.02
465.53
478.25
465.17
517.87
471.13
455.17
507.67
439.85
420.63
437.62
421.1
396.21
398.33
456.08
415.58
435.08
421.16
418.42
332.78
409.86
341.87
316.02
363.57
317.35
307.37
286.81
274.28
329.41
240.01
225.18
218.55
234.08
192.56
154.16
179.55
134.77
201.76
168.02
94.16
118.08
138.72
42.29
36.16
55.29
-1.88
37.41
20.35
18.24
30.28
-17.14
-8.85
-48.85
-52.6
-84.89
-137.8
-161.14
-167.98
-169
-193.79
-184.25
-235.86
-160.71
-241.22
-234.15
-207.13
-243.21
-286.68
-295.78
-324.44
-334.05
-303.49
-354.07
-374.15
-310.23
-331.08
-403.26
-381.41
-407.71
-424.95
-425.54
-437.58
-465.07
-471.91
-484.1
-455.9
-469.69
-489.64
-481.71
-470.84
-445.41
-483.27
-527.94
-450.51
-514.63
-521.28
-498.94
-533.9
-458.1
-460.91
-507.34
-520.58
-457.82
-484.76
-513.99
-510.3
-460.03
-510.43
-502
-447.37
-473.06
1020.36
-457.29
-500.56
-461.2
-466.73
-394.35
-446.83
-399.05
-459.77
-369.88
-413.67
-435.59
-400.83
-390.26
-393.87
-386
-306.41
-347.26
-274.01
-330.98
-278.86
-250.52
-235.7
-275.57
-254.62
-276.62
-242.78
-188.55
-214.1
-221.24
-203.93
-144.58
-115.8
-161.06
-119.07
-84.41
-107.72
-82.85
-11.59
-9.36
-24.25
-11.34
-27.57
21.75
24.32
99.1
111
63.21
72.71
77.59
129.58
145.13
203.9
210.61
221.66
178.06
218.89
250.92
294.21
253.31
241.53
261.21
250.13
269.77
361.61
301.87
329.41
309.8
410.43
395.02
345.97
369.17
432.65
459.94
421.42
423.07
420.45
434.76
497.41
429.48
495.25
461.43
426.08
475.08
485.51
510.56
506.48
501.21
474.77
527.3
492.54
522.64
545.42
454.81
487.77
517.16
518.53
507.3
449.68
470.46
473.31
507.17
515.42
491.34
497.2
427.15
481.16
440.71
431.61
441.5
471.3
461.69
410.14
418.13
426.78
389.26
355.34
425.04
329.76
370.6
297.31
330.94
346.88
266.42
283.25
266.03
232.59
256.72
230.06
229.84
216.66
256.51
197.72
217.21
207.09
125.21
152.38
152.51
118.91
65.29
108.53
51.43
38.3
-2.67
-8.97
12.01
-32.09
18.83
-76.86
-107.23
-83.75
-48.74
-104.96
-122.31
-92.44
-156.52
-112.63
-202.89
-184.23
-193.7
-259.83
-220.53
-216.11
-213.46
-241.57
-251.85
-328.28
-282.67
-307.95
-297.33
-366.37
-355.34
-327.24
-342.52
-409.07
-365.04
-401.22
-451.66
-387.4
-383.49
-388.08
-448.14
-446.02
-498.73
-446.72
-495.21
-469.02
-458.44
-455.93
-511.32
-473.41
-497.7
-526.62
-526.49
-497.62
-510.84
-544.55
-549.49
-541.91
-507.68
-466.08
-493.38
-526
-457.89
-515.78
-464.34
-462.82
-439.75
-442.08
-419.47
-508.85
-496.32
-429.6
-451.83
-478.75
-450.29
-413.07
-406.05
-417.15
-397.85
-392.92
-404.05
-401.66
-372.02
-346.97
-369.21
-328.78
-270.55
-291.52
-335.36
-302.21
-290.69
-207.09
-217.51
-195.31
-257.57
-182.06
-157.14
-168.63
-189.69
-134.45
-136.58
-134.08
-131.18
-70.61
-67.06
-5.59
-3.4
-6.62
1.78
12.45
60.59
-8.64
41.94
53.59
109.48
69.04
133.79
94.81
192.81
179.23
139.9
169.68
155.21
258.26
267.14
285.59
287.86
288.47
282.51
335.74
316.7
281.2
312.81
318.69
388.05
344.45
394.64
335.59
388.17
388.71
418.32
464.88
408.06
428.33
430.02
483.46
471.09
464.14
437.11
488.77
451.15
439.3
462.61
449.73
472.87
479.57
523.34
493.46
520.66
506.31
535.95
516.32
504.03
514.99
466.17
462.95
446.27
534.97
531.79
452.09
478.37
431.52
427.67
483.92
441.47
459.51
460.47
416.46
455.8
422.09
408.8
419.83
395.5
355.34
378.55
399.3
373.08
344.36
358.83
316.18
337.66
327.79
1751.68
266.15
221.92
221.41
247.64
213.51
222.82
219.7
185.54
124.8
155.46
116.63
122.69
109.54
90.89
119.66
73.86
13.45
56.28
51.68
47.01
1.51
15.38
-61.85
-86.62
-61.56
-123.99
-121.04
-161.42
-114.14
-119.39
-152.4
-188.91
-181.29
-237.89
-223.05
-263.05
-203.23
-222.61
-216.53
-279.84
-293.85
-297.79
-299.98
-359.01
-331.31
-363.54
-365.35
-318.95
-403.78
-428.97
-409.08
-401.55
-443.5
-463.36
-392.28
-443.02
-473.13
-474.78
-487.74
-473.08
-477.51
-463.74
-439.65
-485.37
-456.42
-475.82
-521.14
-520.68
-468.57
-514.61
-497.14
-455.7
-544.5
-541.73
-492.31
-450.94
-491.13
-453.6
-441.92
-445.66
-463.85
-441.57
-447.64
-449.26
-463.43
-486.24
-459.19
-483.62
-484.28
-423.42
-402.86
-419.08
-366.38
-354.25
-404.96
-412.36
-409.43
-340.8
-398.02
-309.25
-315.78
-353.08
-286.5
-285.01
-271.86
-219.6
-285.83
-199.99
-225.69
-246.09
-222.26
-149.62
-122.77
-157.9
-159.99
-100.22
-162.49
-102.55
-132.73
-50.28
-73.04
-87.79
-42.91
-16.12
29.58
25.81
49.31
51.13
35.34
87.21
107.03
144.25
87.13
156.16
148.78
124.26
200.73
194.53
195.78
189.68
242.97
279.82
256.54
314.34
318.96
338.24
349.79
311.88
378.57
369.65
319.63
381.32
387.24
396.42
407.51
409.28
371.14
379.98
468.06
401.71
466.68
491.31
497.42
473.54
509.66
439.16
2001.42
462.9
525.96
514.92
469.5
520.9
538.14
511.46
536.53
485.04
490.12
471.59
517.07
545.35
451.7
538.67
463.04
522.24
480.19
491.5
494.88
456.67
510.67
432.68
439.95
455.8
463.38
456.51
457.82
459.4
456.22
422.59
405.32
374.49
381.09
352.17
336.48
341.54
365.56
364.02
314.39
301.89
259.76
318.29
217.58
239.66
252.94
237.44
207.47
163.22
217.57
179.38
114.78
128.02
112.49
77.76
96.76
76
106.64
33.04
77.32
-27.2
-49.94
4.54
9.71
-73.06
-87.16
-109.75
-85.42
-97.71
-101.29
-142.08
-102.18
-147.32
-217.4
-225.77
-224.43
-249.35
-227.55
-241.02
-243.58
-260.99
-331.11
-250.84
-260.32
-339.14
-319.66
-339.02
-370.23
-325.7
-335.37
-413.66
-345.62
-365.46
-376.87
-388.85
-445.28
-429.46
-484.27
-453.23
-467.2
-475.02
-444.28
-468
-430.17
-446.55
-509.14
-469.46
-445.77
-503.99
-509.21
-458.87
-522.47
-453.18
-469.66
-532.89
-506.77
-496.75
-498.88
-495.49
-519.17
-485.52
-461.46
-530.53
-458.17
-489.79
-498.29
-416.26
-456.04
-408.69
-442.81
-389.05
-450.69
-389.37
-440.79
-418.78
-398.5
-340.77
-355.19
-352.05
-385.15
-350.21
-308.96
-313.04
-269.26
-334.11
-307.8
-315.01
-268.35
-243.76
-191.67
-242.14
-195.52
-211.13
-157.63
-188.29
-152.72
-110.73
-126.42
-99.02
-139.19
-79.06
-85.62
-13.97
-14.62
-39.81
-17.5
20.49
50.33
11.92
28.46
57.28
117.41
145.16
159.66
91.16
98.82
198.81
162.43
151.68
169.47
210.47
204.36
252.18
229.68
265.93
329.15
313.64
328.45
319.12
343.66
342.03
335.17
373.68
358.71
345.41
436
404.14
366.12
406.95
395.33
392.35
445.84
405.29
451.28
444.3
457.78
481.61
500.72
503.68
472.11
494.93
463.96
463.2
483.5
505.38
502.75
465.8
535.46
495.49
468.91
514.93
493.65
543.04
456.74
452.48
492.42
488.47
526.82
453
449.24
463.56
476.53
453.99
464.29
404.51
472.15
455.8
396.58
378.33
441.63
379.38
381.58
320.97
374.6
298.02
377.45
273.47
273.43
269.39
248.59
249.45
244.59
199.26
274.25
202.91
172.58
163.45
159.63
198.16
105.21
130.13
150.47
85.02
96.44
115.42
13.84
2.22
16.48
21.87
-14.68
18.71
-8.62
-14.99
-35.6
-26.65
-49.05
-146.08
-81.33
-139.22
-158.78
-151.39
-160.35
-181.68
-175.62
-178.39
-270.89
-252.97
-283.19
-295.7
-314.43
-342.75
-328.58
-308
-309.28
-385.42
-335.84
-397.94
-329.22
-399.75
-409.48
-387.96
-417.76
-407.29
-457.05
-389.89
-443.53
-450.44
-404.58
-490.7
-456.29
-445.44
-511.38
-442.65
-533.33
-489.58
-509.35
-472.91
-525.2
-545.64
-526.56
-477.94
-458.9
-483
-475.41
-494.23
-451.3
-501.05
-450.01
-501.71
-525.61
-526.82
-467.19
1071.47
-498.68
-472.21
-435.08
-416.99
-398.23
-471.12
-398.45
-469.37
-446.5
-401.88
-383.2
-364.56
-389.34
-381.15
-395.03
-348.67
-338.32
-354.69
-266.95
-343.73
-309.24
-287.19
-215.09
-243.01
-261.94
-207.15
-195.79
-156.34
-192.58
-152.44
-154.65
-152.11
-171.54
-86.12
-91.38
-108.5
-43.3
-51.2
-11.45
-15.53
18.13
-8.48
8.55
55.51
83.06
76.98
49.86
108.38
122.69
119.49
189.61
166.36
211.06
147.35
205.93
196.3
230.29
272.28
297.28
270.84
324.87
325.72
256.23
317.72
372.19
358.55
312.77
404.22
361.14
347.26
407.91
394.02
422.82
461.45
422.72
471.38
399.53
398.09
433.36
501.72
424.24
434.43
433.84
462.68
492.67
520.29
537.38
444.85
489.4
514.08
510.29
519.27
489.19
465.99
452.59
509.57
493.99
468.04
470.4
474.41
494.83
486.09
517.52
473.63
488.26
423.76
466.22
408.32
420.82
461.03
449.57
400.85
399.3
398.71
390.37
340.04
422.74
418.75
351.03
363.37
380.28
293.4
302.81
283.34
295.1
232.59
272.41
260.56
191.66
198.35
199.09
165.17
172.08
128.84
130.54
105.68
148.47
133.6
134.23
122.11
70.17
55.15
-7.89
5.83
-28.73
33.9
-68.46
-0.71
-69.8
-102.3
-64.5
-72.77
-117.05
-128.65
-180.34
-188.38
-178.38
-155.58
-200.62
-171.51
-225.77
-200.91
-258.09
-261.64
-294.42
-246.48
1160.25
-278.28
-326.86
-330.99
-344.35
-311.45
-358.36
-341.31
-376.21
-381.88
-376.98
-435.13
-399.87
-445.83
-444.25
-470.12
-492.48
-424.24
-418.75
-477.52
-483.7
-498.09
-487.47
-487.4
-472.8
-521.73
-490.2
-542.4
-525.7
-537.22
-479.36
-468.36
-476.53
-540.42
-516.52
-521.53
-506.68
-480.71
-481.71
-451.35
-486.47
-479.13
-458.16
-511.59
-418.22
-431.39
-413.35
-427.75
-412.57
-385.53
-451.26
-440.88
-413.12
-350.26
-410.53
-355.52
-333.98
-395.29
-367.88
-376.02
-361.71
-348.05
-332.16
-236.22
-312.53
-292.26
-247.23
-210.96
-243.22
-222.46
-153.63
-132.1
-136.98
-181.78
-139.3
-111.22
-53.44
-117.17
-119.51
-61.12
-1.22
-6.3
36.95
44.27
-0.04
1.75
74.03
87.26
48.5
72.19
103.48
168.14
118.45
158.1
137.21
195.06
213.79
173.43
225.3
207.15
210.54
299.67
259.17
295.53
286.54
359.54
282.66
330.68
320.52
364.31
353.06
341.23
412.7
400.97
368.26
430.19
413.21
385.42
475.52
453.17
413.72
408.74
469.67
469.96
438.08
437.75
484.92
532.6
440.61
530.16
448.04
522.72
473.54
502.36
520.93
455.61
534.14
546.95
474.46
540.3
485.89
477.29
474.8
496.38
501.31
495.16
519.98
420.97
413.57
409.31
415.19
415.74
385.91
405.8
464.92
407.58
413.98
382.17
348.81
354.25
392.79
384.91
347.76
349.34
359.88
350.33
328.2
255.85
225.9
254.32
200.66
231.86
174.96
246.89
227.16
175.99
144.07
185.39
126.41
151.26
124.5
76.37
84.01
80.27
82.7
30.54
-30.44
-32.96
13.43
-25.36
-69.3
-45.05
-69.28
-68.4
-60.83
-95.86
-136.24
-183.93
-189.03
-222.55
-152.6
-179.37
-261.9
-241.87
-201.11
-222.89
-270.23
-280.11
-279.99
-359.79
-330.91
-374.7
-383.32
-401.07
-326.77
-326.07
-381.59
-359.46
-371.07
-453.89
-447.83
-409.52
-444.6
-439.65
-444.97
-451.82
-485.94
-424.99
-509.33
-520.68
-472.67
-461.23
-503.12
-504.49
-511.29
-531.17
-509.78
-532.98
-483.29
-495.32
-488.19
-490.43
-477.66
-516.05
-506.25
-502.37
-476.89
-478.54
-488.77
-471.16
-504.71
-485.49
-460.42
-419.24
-485.15
-437.3
-387.91
-423.15
-428.96
-402.44
-384.77
-424.55
-383.03
-390.27
-351.03
-350.86
-363.66
-363.68
-340.05
-356.7
-332.6
-264.17
-243.27
-253.3
-267.29
-219.17
-202.76
-165.17
-141.78
-173.81
-197.77
-156.9
-89.34
-115.11
-110
-41.48
-117.72
-94.45
-68.93
-79.5
23.23
34.66
22.66
66.96
85.52
36.21
66.25
94.44
143.39
149.74
171.64
171.27
197.41
222.26
156.47
175.14
256.91
249.1
200.49
306.46
313.26
315.77
264.58
319.35
358.34
306.09
379.78
317.01
315.41
423.2
390.62
424.26
447.49
403.4
454.47
378.97
417.85
408.07
432.92
422.36
424.91
432.26
482.22
1991.1
502.95
512.93
483.21
508.09
531.44
502.01
487.82
456.04
494.36
518.56
476.37
497.64
541.97
514.89
495.22
453.67
508.82
513.34
491.62
460.95
465.61
438.69
419.1
502.83
457.2
400.07
429.64
440.71
440.32
448.84
432.7
434.12
394.71
390.95
334.27
385.61
359.41
374.46
273.54
335.53
264.65
318.44
252.32
239.63
207.4
195.45
265.76
255.8
177.09
194.13
201.72
157.9
148.5
91.7
108.31
74.77
31.51
13
6.84
22.48
26.66
-16.24
7.92
-73.46
-64.56
-84.69
-52.03
-82
-129.68
-106.54
-141.29
-118.46
-165.38
-189.08
-173.24
-227.7
-216.43
-234.07
-250.16
-258.33
-236.91
-299.84
-272.19
-314.92
-283.12
-335.2
-347.36
-375.03
-406.37
-386.1
-422.26
-439.74
-402.58
-361.72
-462.09
-396.62
-419.01
-416.41
-488.45
-442.16
-429.95
-472.43
-452.25
-444.84
-527.29
-465.74
-482.6
-443.05
-509.14
-479.95
-508.44
-471.09
-547.73
-490.62
-540.77
-483.72
-477.26
-542.28
-541.67
-464.62
-457.29
-532.34
-514.63
-520.13
-429.67
-442.79
-428.59
-471.24
-411.27
-438.29
-459.86
-450.88
-376.83
-442.75
-371.79
-347
-391.29
-377.7
-340.54
-366.24
-382.87
-350.93
-332.63
-288.47
-344.4
-292.92
-227.04
-244.74
-224.1
-246.9
-256.49
-196.26
-208.53
-144.59
-205.21
-126.63
-161.2
-85.99
-100.74
-144.41
-118.07
-110.06
-5.74
-78.27
-58.56
-12.72
1478.79
72.52
89.04
94.73
101.86
66.03
77.43
65.61
90.69
188.56
165.84
169.17
228.46
194.69
175.66
197.87
220.55
288.79
298.59
229.49
286.41
297.95
336.68
373.65
368.38
360.37
378.47
356.62
350.07
378.78
357.71
443.81
381.48
450.38
409.69
443.59
484.22
413.23
418.39
497.33
461.75
442.64
441.59
507.96
529.79
520.1
477.26
478.53
509.25
489.74
477.64
470.11
467.13
452.52
497.47
467.62
482.74
471.91
508.66
457.48
522.08
466.63
429.69
491.4
512.38
476.84
436.04
421.78
487.22
438.16
416.08
397.59
367.16
353.09
376.34
404.43
412.28
397.87
379.78
330.64
343.03
320.94
351.29
265.65
309.32
294.9
270.2
263.91
209.58
166
227.76
191.08
153.39
132.2
112.18
99.45
124.37
117.34
103.52
113.59
53.64
-0.87
70.71
-18.49
-8.24
-25.82
-49.47
-26.42
-32.18
-48.23
-91.53
-126.73
-94.46
-174.95
-202.15
-215.07
-220.97
-154.66
-250.77
-272.8
-197.59
-222.07
-313.08
-323.94
-309.97
-266.71
-326.7
-308.48
-327.62
-351.04
-390.4
-345.54
-336.11
-357.79
-394.19
-422.23
-452.89
-416.41
-455.68
-415.62
-459.83
-482.76
-477.78
-453.08
-501.45
-426.44
-470.13
-453.22
-438.64
-509.89
-465.16
-453.44
-491.84
-468.96
-459.47
-512.25
-453.76
-490.33
-498.65
-462.98
-468.19
-454.16
-490.91
-454.1
-524.49
-476.69
-459.53
-464.68
-493.31
-460.32
-475.21
-453.11
-467.64
-470.27
-433.65
-442.04
-403.41
-419.5
-410.51
-347.1
-367.73
-333.6
-362.51
-375.4
-304.76
-351.06
-270.49
-263.3
-310.54
-237.52
-301.06
-277.3
-178.45
-170.25
-170.85
-152.36
-207.14
-111.22
-129.97
-130.42
-87.09
-98.09
-35.86
-24.65
-19.72
-84.73
-49.7
-40.13
-10.2
-9.97
43.46
86.13
97.97
59.17
106.77
90.88
129.81
177.35
181.91
176.75
197.77
224.96
187.63
208.9
241.57
237.75
221.16
257.73
249.79
322.22
283.73
346.28
357.86
313.8
311.34
369.39
341.5
379.77
387.81
388.89
369.21
467.48
392.14
470.42
469.48
464.05
424.61
496.75
469.32
459.11
497.41
442.69
499.66
487.2
500.37
462.81
527.44
487.98
523.5
532.27
455.5
516.1
475.38
451.63
450.77
512.17
512.22
453.73
479.79
488.7
492.51
520.82
488.51
502.83
486.08
427.58
455.75
447.41
403.13
444.79
427.11
390.63
379.13
338.02
362.08
322.14
379.99
305.66
343.52
349.9
339.64
264.93
302.47
245.22
211.45
228.05
223.18
200.56
200.88
225.67
186.67
174.12
101.76
146.68
94.69
144.68
74.64
106.34
15.75
54.95
73.48
-34.24
36.55
32.06
-3.62
-21.92
-30.34