-279.35
-307.26
-335.35
-299.42
-357.55
-386.33
-399.36
-327.55
-411.4
-408.53
-407.65
-393.51
-369.82
-379.47
-383.6
-406.54
-403.73
-414.67
-475.25
-493.24
-421.19
-519.49
-493.35
-521.91
-473.14
-471.1
-501.19
-447.32
-495.47
-484.76
-496.11
-467.53
-490.48
-469.21
-512.26
-500.16
-546.14
-493.09
-530.25
-506.76
-527.52
-448.91
-491.38
1061.67
-490.21
-466.71
-504.55
-432.26
-397.31
-444.71
-421.01
-398.32
-374.44
-409.83
-426.65
-371.24
-336.97
-332.89
-405.31
-377.13
-308.94
-301.86
-350.99
-344.87
-322.84
-267.26
-233.63
-205.38
-238.14
-187.68
-172.78
-195.5
-219.15
-163.76
-184.49
-101.47
-155.24
-125.34
-95.91
-89.6
-71.98
-29.58
-76.16
-17.62
-50.53
52.85
27.51
75.32
71.24
64.93
128.97
69.41
92.59
125.28
149.04
149.37
214.87
191.94
194.16
201.1
245.05
280.37
236.65
231.53
242.94
289.84
347.22
301.61
313.28
291.46
346.52
335.04
364.07
401.15
381.94
349.94
414.63
433.42
453.88
436.54
434.12
452.07
486.39
447.51
459.97
456.27
499
526.66
528.18
467.32
450.87
453.79
489.81
456.26
507.36
517.67
529.63
467.28
546.09
485.23
456.65
474.22
469.98
512.08
453.1
484.05
430.53
504.93
504.37
468.72
503.88
498.4
436.44
472.93
454.08
449.56
374.4
450.18
362.52
394.76
372.81
382.55
317.98
313.48
320.39
284.48
318.9
283.42
329.41
318.25
261.1
288.16
261.62
219.76
230.36
233.9
216.81
168.3
116.11
155.39
155.02
71.47
75.68
36.27
40.59
79.2
22.55
13.6
40.87
21.5
-11.8
-86.44
-79.04
-28.13
-73.22
-90.52
-88.46
-163.52
-187.85
-165.78
-144.59
-206.8
-158.02
-201.58
-214.21
-280.07
-298.9
-215.13
-246.96
-272.32
1222.21
-344.89
-327.23
-327.39
-329.68
-366.3
-403.22
-382.79
-409.59
-374.35
-389.27
-448.26
-451.08
-429.58
-437.54
-461.28
-449.98
-502.33
-471.91
-494.66
-486.39
-490.87
-529.47
-437.49
-489.13
-523.55
-498.03
-520.11
-544.72
-515.89
-456.24
-513.23
-510.38
-480.37
-538.62
-525.79
-527.08
-504.8
-453.35
-449.4
-496.89
-437.76
-494.99
-432.77
-424.97
-409.14
-438.21
-391.36
-383.99
-386.37
-462.26
-417.66
-409.28
-428.93
-346.16
-339.48
-358.07
-356.02
-386.59
-327.58
-358.3
-343.02
-301.34
-325.36
-298.84
-273.15
-254.99
-197.09
-190.63
-155.04
-224.62
-211.9
-170.23
-160.27
-126.21
-162.11
-107.22
-110.63
-66.42
-18.31
8.6
3.16
11.96
10.43
67.25
6.6
41.37
90.52
45.61
137.21
134.16
172.86
139.21
117.68
148.23
185.7
224.92
224.81
237.64
229.88
229.85
308.91
286.59
310.72
322.46
314.94
293.06
377.72
344.75
396.77
330.14
336.43
370.12
418.08
412.21
369.85
438.81
431.06
427.13
464.43
499.18
420.97
506.36
475.03
428.08
466.07
486.71
529.54
519.72
488
480.33
484.11
533.54
524.24
538.38
468.04
484.12
506.63
503.52
462.36
448.27
450.29
451.15
512.85
511.51
457.54
492.82
498.45
480.25
416.14
412.7
427.59
397.8
398.51
369.7
440.62
413.19
403.89
352.63
351.67
370.13
363.07
347.76
325.39
270.08
329.49
1765.77
278.71
285.43
239.85
283.26
216.49
214.97
219.87
203.49
149.99
204.63
158.33
117
96.48
92.99
117.91
66.87
73.1
48.23
40.6
55.72
3.31
31.83
-38.7
0.73
-46.86
-115.04
-104.66
-143.07
-107.82
-171.5
-114.91
-188.75
-210.71
-144.13
-229.7
-238.58
-216.02
-243.74
-269.72
-226.85
-255.59
-266.33
-352.28
-297.82
-366.85
-376.25
-375.13
-401.38
-409.75
-411.4
-440.02
-402.2
-436.15
-436.2
-452.74
-393.22
-478.21
-404.72
-484.7
-418.44
-514.37
-500.37
-521.1
-489.18
-479.67
-439.25
-468.73
-461.22
-542.5
-538.81
-459.71
-502.77
-482.55
-508.99
-461.77
-521.89
-468.91
-484.04
-494.15
-532.35
-477.02
-500.21
-486.3
-507.26
-505.95
-445.81
-445.99
-473.87
-440.77
-450.2
-423.81
-441.15
-436.83
-446.29
-405.88
-350.62
-423.46
-335.21
-321.71
-303.97
-285.86
-302.9
-291.08
-331.78
-246.87
-249.56
-220.97
-200.49
-194.34
-236
-252.53
-170.59
-144.5
-174.18
-154.38
-170.79
-162.08
-73.11
-92.76
-67.1
-33.06
-64.34
-18.67
-31.64
42.3
29.26
-12.02
89.34
97.28
56.14
72.62
133.14
115.88
163.24
106.89
127.5
213.07
153.99
212.47
171.3
186.4
209.45
222.52
315.8
330.77
274.89
336.38
329.71
287.31
378.67
370.52
358.52
405.11
334.9
435.02
366.4
397.62
468.4
424.76
391.57
434.24
478.57
502.45
454.52
427.07
522.12
1988.51
457.86
524.16
491.54
488.79
464.32
491.46
508.3
508.83
456.91
511.55
507.48
540.69
460.93
466.3
477.65
471.21
456.87
483.96
478.37
474.71
479.22
449.39
474.02
444.68
478.76
424.53
482.66
439.7
464.68
403.27
381.23
438
375.74
350.33
387.31
348.91
307.15
373.34
283.92
331.69
339.59
325.21
311.73
288.87
205.11
259.02
227.5
211.96
229.14
156.38
213.88
105.96
182.04
80.96
71.9
112.52
92.96
91.55
73.76
-1.64
41.18
-37.05
7.14
-45.16
-92.36
-96.8
-103.57
-124.88
-102.81
-160.55
-171.78
-118.55
-143.2
-219.66
-223.2
-198.36
-183.89
-189.11
-272.2
-254.81
-246.93
-235.63
-317.64
-258.53
-294.7
-338.79
-315.39
-348.93
-398.93
-335.73
-359.58
-413.22
-448.59
-389.42
-419.52
-425.55
-415.1
-485.25
-448.31
-404.75
-419.46
-457.36
-477.27
-476.15
-486.24
-513.5
-512.79
-467.18
-448.98
-491.88
-459.76
-485.58
-540.5
-491.93
-465.83
-486.84
-505.34
-524.78
-476.64
-529.3
-499.13
-494.4
-479.05
-523.39
-470.85
-423.24
-420.15
-464.75
-487.33
-447.16
-453.33
-436.52
-433.94
-444.19
-393.67
-388
-417.93
-357.57
-357.51
-340.18
-342.09
-355.47
-299.29
-272.64
-333.74
-316.4
-278.14
-234.1
-210.47
-273.57
-242.59
-218.7
-162.65
-148.57
-148.84
-184.47
-162.42
-158.37
-68.67
-115.18
-127.63
-93.11
-31.78
3.83
-70.04
30.59
1523.35
-20.81
61.76
78.39
20.27
119.4
90.46
97.32
128
167.7
177.38
221.14
170.7
211.61
249.4
229.25
215.87
294.51
241.13
299.41
334.48
270.88
269.77
355.42
300.42
310.98
381.37
382.8
352.57
411.85
427.26
439.86
411.91
379.5
403.91
460.83
437.69
432.99
476.61
507.93
431.81
497.78
524.62
501.64
516.78
514.55
537.22
536.37
455.03
529.69
541.42
547.79
518.29
535.48
465.9
465.56
482.84
519.07
519.06
519.73
461.64
519.55
496.91
451.49
460.93
499.77
466.21
413.33
454.44
416.54
415.19
378.08
362.54
350.78
369.97
350.66
355.16
359.35
383.46
333.51
350.52
281.38
316.82
249.99
248.41
288.09
275.53
278.87
266.36
249.22
229.88
167.71
138.92
119.9
105.16
94.25
112.67
86.37
75.69
71.44
72.57
61.16
30.37
22.61
36.15
17.89
-41.07
-61.52
-50.39
-33.11
-92.36
-87.43
-119.37
-151.28
-127.23
-213.1
-168.03
-159.85
-211.7
-260.09
-195.76
-293.17
-252.5
-269.11
-245.26
-294.11
-324.24
-370.22
-334.85
-342.6
-344.37
-399.68
-351.15
-426.59
-350.64
-439.89
-365.45
-462.69
-412.11
-424.25
-442.85
-447.88
-482.08
-436.83
-448.19
-438.54
-451.16
-483.73
-511.35
-523.24
-467.31
-514.25
-526.6
-491.75
-539.3
-466.99
-526.85
-472.06
-503.36
-503.44
-447.98
-507.39
-491.96
-498.5
-527.53
-438.87
1012.06
-485.93
-432.25
-485.66
-454.08
-495.8
-430.04
-393.74
-400.12
-458.83
-401.02
-420.22
-429.1
-420.26
-378.8
-351.1
-307.92
-292.13
-345.44
-314.01
-352.6
-322.74
-239.08
-247.05
-256.94
-279.85
-231.78
-246.1
-244.16
-214.91
-146.62
-174.2
-186.35
-168.12
-120.38
-62.95
-110.43
-103.37
-57.81
0.66
3.34
-5.04
-44.57
21.96
47.91
37.14
61.8
103.97
59.05
65.35
88.72
166.55
180.29
122.23
180.16
223.07
254.03
213.29
239.42
212.69
232.89
250.63
259.05
286.35
360.61
285.94
373.83
333.78
379.67
326.93
381.84
350.38
435.77
390.83
425.34
389.66
403.88
395.02
438.62
415.47
437.61
415.61
464.6
494.63
485.81
501.38
484.29
514.25
496.93
534.39
511.7
465.68
519.78
516.12
525.23
475.32
486.65
476.29
531.17
451.33
522.23
474.38
460.12
514.15
514.26
511.22
466.04
476.05
428.23
405.5
397.82
445.32
412.64
413.57
450.76
444.13
382.55
360.18
393.92
402.41
372.83
371.65
319.48
350.61
352.51
339.63
234.47
285.54
244.85
195.62
270.03
219.82
152.71
191.33
163.53
172.31
160.6
82.96
70.63
143.24
79.89
36.13
15.53
77.64
7.65
-23.52
9.37
-22.17
-12.16
-86.41
-90.26
-56.56
-92.39
-63.98
-162.03
-180.94
-171.08
-118.72
-136.71
-151.29
-174.11
-205.45
-208.28
-272.82
-239.82
-273.44
-282.15
1234.4
-317.98
-291.8
-291.71
-324.4
-363.25
-336.55
-385.59
-356.67
-389.16
-363.32
-387.9
-432.15
-419.23
-405.15
-411.28
-470.44
-501.79
-451.35
-450.99
-516.76
-453.62
-493.19
-453.4
-459.75
-533.18
-487.46
-465.41
-507.21
-453.52
-538.27
-539.46
-489.72
-535.09
-473.13
-511.57
-506.4
-540.35
-508.05
-494.86
-494.68
-468.14
-468.95
-421.57
-434.36
-472.93
-464.34
-427.88
-422.26
-444.37
-463.48
-388.38
-356.7
-432.55
-423.58
-403.42
-361.7
-356.49
-331.84
-317.14
-347.44
-316.06
-253.41
-333.27
-283.3
-296.7
-227.22
-227.17
-263.28
-215.58
-145.2
-127.39
-212.4
-197.54
-140.9
-97.68
-126.81
-124.66
-107.66
-106.68
-46.72
-35.79
-10.75
-3.57
39.96
10.49
31.52
28.66
55.7
48.75
143.31
114.18
135.1
181.78
129.54
166
224.8
166.12
216.97
259.8
256.18
280.44
265.8
249.56
343.4
260.73
317.44
288.21
351.74
362.51
411.29
372.48
410.36
377.02
414.09
456.3
450.3
391.57
412.86
491.23
475.02
504.62
442.63
451.56
479.72
467.96
433.94
450.69
499.74
441.99
452.21
496.61
458.35
463.8
481.27
484.08
549.68
464.74
524.87
451.57
494.86
442.25
519.34
489.77
434.02
465.82
513.42
509.94
421.5
436.17
493.24
443.25
465.6
382.71
410.7
453.66
451.08
410.68
390.96
346.96
324.43
399.05
330.33
368.6
339.81
328.61
340.19
1760.45
284.07
258.6
248.58
215.61
235.21
180.94
199.44
219.32
190.9
160.02
152.33
97.06
71.25
47.94
28.56
99.64
95.17
8.78
-30.55
31.94
-11.87
-53.61
-49.52
-32.85
-31.28
-66.09
-77.67
-72.34
-99.25
-186.87
-185.32
-137.4
-212.46
-227.45
-173.97
-243.41
-198.12
-239.93
-243.77
-289.86
-253.8
-318.05
-268.49
-369.27
-349.98
-369.96
-326.79
-336.92
-415.22
-389.48
-373.44
-439.04
-388.7
-445.36
-445.01
-473.3
-489.05
-429.74
-467.6
-419.14
-473.4
-511.29
-501
-447.87
-512.42
-467.31
-479.07
-464.3
-492.4
-449.35
-508.09
-450.28
-514.02
-480.83
-509.67
-480.95
-468.57
-527.24
-484.63
-454.01
-509.2
-465.19
-482.52
-499.85
-471.36
-504.84
-406.67
-485.21
-389.67
-461.78
-460.56
-435.04
-402.67
-438.31
-413.9
-356.53
-344.79
-372.4
-340.3
-294.35
-275.71
-281.64
-342.04
-254.44
-271.36
-295.86
-223.71
-246.98
-216.14
-258.68
-202.72
-161.5
-136.14
-156.01
-135.6
-133.35
-131.74
-109.47
-83.98
-77.99
-64.58
-6.12
-30.16
34.34
31.27
-9.15
77.33
68.5
64.46
106.57
79.49
77.26
151.29
116.14
143.38
182.1
211.64
165.09
249.46
271.87
236.49
219.6
263.46
317.08
319.91
312.51
309.33
283.27
314.43
391.34
333.36
329.94
337.23
347.84
358.63
368.19
385.9
387.01
479.34
440.01
485.34
412.89
504.57
511.56
518.67
456.57
519.21
480.36
488.66
442.07
522.66
467.57
544.22
536.89
490.22
476.53
466.49
528.33
501.95
546.17
447.81
474.26
535.19
466.13
511.96
505.34
499.53
464.15
500.85
460.45
460.28
449.27
396.88
404.48
419.39
382.64
443.41
412.95
361.35
373.98
410.52
347.52
358.53
337.46
278.1
277.06
281.88
262.51
295.04
247.06
207.82
228.88
182.42
196.53
187.11
203.44
206.8
184.24
100.83
156.55
99.54
138.55
70.46
21.02
47.36
70.07
67.93
-27.47
-10.3
-65.44
-41.62
-59.98
-97.62
-37.24
-76.26
-128.23
-137.02
-187.69
-172.79
-156.93
-172.15
-166.69
-200.77
-207.48
-225.55
-228.48
-300.32
-231.98
-298.5
-270.02
-310.14
-294.93
-368.38
-323.01
-376.72
-357.2
-378.74
-388.43
-362.93
-388.37
-390.66
-463.38
-422.56
-425.42
-404.7
-421.49
-496.38
-439.29
-459.58
-493.79
-469.88
-488.35
-447.15
-511.34
-509.39
-511.66
-496.14
-542.98
-519.23
-509.12
-500.11
-490.54
-496.82
-474.49
-488.52
-497.82
-454.09
-536.61
-510.44
-446.15
-441.75
-467.49
-466.14
-434.56
-423.91
-399.55
-474.49
-407.02
-462.18
-410.57
-412.99
-353.29
-401.88
-403.36
-389.65
-361.15
-369.67
-343.66
-344.34
-328.99
-298.11
-320.68
-317.7
-240.81
-232.16
-213.82
-232.01
-225.03
-223.78
-188.28
-206.25
-143.15
-150.97
-83.53
-133.22
-103.59
-57.56
-116.76
-23.16
-17.79
-23.55
-50.14
1478.93
35.71
44.34
71.14
88.44
50.44
57.78
108.57
155.45
160.52
200.99
153.63
138.54
194.67
218.68
204.59
279.55
293.09
247.73
304.11
284.02
316.64
264.2
343
324.93
353.46
400.87
369.55
328.38
419.76
386.76
409.86
387.22
426.76
408.02
453.25
453.66
446.66
480.59
441.65
426.18
520.5
483.43
438.54
531.74
521.39
498.13
518.54
518.61
535.97
480.71
546.27
450.96
505.61
456.93
503.59
541.14
463.78
450.09
447.91
463.26
467.97
516.45
494.12
441.18
416.29
424.36
415.69
456.44
409.96
414.73
391.33
381.4
425.99
396.07
368.83
358.85
368.86
354.7
303.43
360.94
307.96
353.45
291.72
324.18
236.86
261.87
210.1
239.78
211.81
176.69
142.11
138.38
174.08
159.12
94.3
150.01
122.39
41.9
79.33
70.85
41.78
4.94
-36.63
-9.81
-18.88
-1.76
-68.1
-78.83
-74.31
-113.57
-105.1
-106.22
-100.75
-120.12
-124.32
-134.1
-195.92
-158.4
-193.06
-263
-205.54
-267.93
-256.49
-281.16
-275.58
-307.59
-334.12
-310.21
-349.31
-327.58
-331.78
-413.54
-393.44
-374.12
-423.94
-410.53
-442.83
-454.76
-473.47
-491.55
-421.43
-487.03
-493.48
-434.16
-461.94
-495.42
-514.32
-485.02
-445.72
-535.13
-458.94
-519.69
-508.58
-515.04
-521.47
-527.75
-455.99
-518.1
-507.39
-455.14
-465.35
-511.66
-485.63
-517.78
-476.03
-482.47
1048.93
-426.33
-458.26
-469.69
-469.34
-446.4
-415.22
-409.49
-404.56
-392.39
-406.08
-413.52
-393.42
-393.33
-327.92
-336.93
-320.28
-342.99
-339.02
-346.35
-290.8
-268.99
-317.95
-287.34
-285.45
-219.81
-198.77
-203.53
-197.59
-140.18
-192.83
-189.3
-135.68
-138.48
-71.55
-72.58
-57.19
-20.37
-12.76
-39.1
-52.39
-45.03
27.28
49.55
68.99
64.11
67.52
44.67
102.71
111.03
182.5
120.76
207.34
131.79
152.34
178.06
196.59
192.59
210.82
284.53
247.59
312.7
306.65
347.07
334.06
377.04
379.59
360.91
362.02
353.61
375.5
350.95
398.2
371.32
445.89
443.4
416.05
448.94
451.96
428.16
486.34
495
440.23
435.84
463.52
466.46
463.36
468.05
446.37
534.32
499.02
531.12
517.52
462.29
543.69
476.83
542.5
475.83
543.8
483.4
488.39
502.3
524.16
458.42
519.94
425.26
413.51
459.12
487.52
458.59
444.43
478.68
443.72
436.11
430.5
393.93
433.74
364.47
397.46
335.38
298.44
370.82
347.4
338.95
305.19
303.87
270.44
275.19
266.18
221.18
184.52
250.1
206.28
182.78
207.51
167.41
90.18
142.22
96.81
100.89
104.34
80.58
7.47
53.88
16.67
-21.71
-3.68
-19.42
4.97
-90.65
-52.6
-81.78
-79.75
-103.24
-155.71
-138.65
-138.37
-222.02
-205.63
-191.44
-242.41
-269.96
-206.17
-300.28
-240.97
-298.52
-264.95
-293.14
-361.09
-330.16
-382.6
-363.8
-379.35
-398.17
-377.71
-372.62
-390.34
-436.77
-436.67
-403.76
-474.97
-422.9
-454.11
-499.48
-423.55
-473.82
-506.44
-482.39
-439.77
-449.01
-519.13
-504.35
-492.75
-545.65
-491.63
-468
-522.35
-502.39
-520.34
-544.01
-499.48
-504.19
-516.53
-501.4
-510.09
-499.57
-480.66
-462.99
-451.94
-500.8
-455.13
-436.12
-456.6
-493.01
-482.28
-458.41
-458.01
-436
-454.52
-393.07
-353.86
-421.27
-395.61
-373.52
-336.2
-312.5
-347.2
-308.87
-288.84
-291.88
-265.13
-297.91
-238.41
-277.6
-249.23
-207.1
-180.96
-167.99
-158.01
-163.57
-163.9
-155.87
-97.96
-48.22
-84.02
-69.81
-2.28
-47.49
-5.52
31.86
24.93
2.2
-5.3
82.39
91.26
124.64
134.26
156.34
90.09
161.26
124.83
128.59
150.78
230.81
169.67
184.19
223.26
209.22
228.24
251.96
338.95
321.84
290.13
285.52
363.55
341.96
366.3
370.65
416.72
420.66
447.32
419.25
459.42
397.5
399.03
423.93
464.09
424.84
489.09
426.26
452.12
488.66
432.23
461.4
527.45
519.28
491.31
510.4
499.31
514.39
528.63
542.64
462.3
482.7
492.85
449.08
524.66
506.29
521.48
533.02
528.03
454.77
456.19
478.64
483.63
454.52
466.51
417.39
479.28
426.42
390.01
411.83
413.06
396.49
361.92
348.79
397.52
404.09
339.38
376.61
327.74
280.05
335.73
1781.03
312.9
296.07
217.47
229.66
220.98
178.82
185.75
159.95
215.74
190.23
104.72
143.53
68.34
137.36
89.71
19.59
5.06
-0.37
40.04
-6.7
-5.95
2.4
-63.6
-56.23
-109.1
-32.69
-127.33
-121.42
-109.16
-164.19
-182.96
-202.7
-178.98
-174.24
-238.85
-214.02
-239.19
-286.87
-256.89
-262.6
-257.4
-339.24
-302.38
-291.36
-372.2
-365.7
-379.29
-351.57
-378.52
-424.96
-371.31
-376.77
-413.81
-448.92
-382.19
-428.44
-470.19
-496.92
-496.23
-474.96
-466.88
-463.41
-509.32
-512.35
-509.98
-440.33
-528.64
-445.33
-500.89
-465.53
-498.81
-474.42
-519.6
-471.57
-474.11
-512.77
-453.59
-451.37
-521.12
-523.72
-462.98
-507.62
-480.14
-472.79
-467.72
-477.1
-450.52
-463.61
-391.33
-454.94
-468.28
-425.74
-366.25
-423.52
-358.29
-400.94
-408.23
-328.57
-394.37
-321.45
-354.42
-340.41
-290.18
-253.94
-289.78
-298.42
-268.32
-269.94
-206.2
-252.19
-164.57
-212.37
-179.65
-203.9
-175.07
-140.3
-138.25
-133.29
-109.51
-100.58
-24.11
-34.59
-22.56
-24.74
-18.62
-1.85
71.18
62.28
37.33
77.81
140.32
114.4
80.85
167.89
141.31
175.73
148.62
222.2
163.61
205.8
230.25
294.08
234.51
291.02
292.25
343.04
318.21
331.82
339.9
300.49
315.19
408.84
392.11
391.86
380.47
419.53
455.21
419.27
387.45
414.76
473.06
433.9
483.39
417.49
465.69
437.09
1953.23
445
517.29
451.24
520.54
490.18
499.35
490.21
546.12
499.97
492.29
473.47
465.52
486.39
521.32
496.46
520.89
458.2
474.96
481.68
521.27
445.44
505.7
462.87
407.85
489.59
453.17
461.88
398.36
410.51
409.32
407.91
346.92
391.12
333.82
363.95
391.96
379.19
375.1
343.47
337.08
265.06
310.2
242.96
230.26
254.85
217.44
169.95
244.02
223.21
128.9
125.12
120.65
104.21
115.29
113.43
75.09
33.59
55.11
79.65
47.11
-32.87
-21.36
26.36
-2.51
-46.87
-24.09
-67.77
-64.1
-111.52
-75.57
-156.52
-120.59
-127.05
-218.71
-162.62
-251.2
-222.24
-250.48
-208.48
-262.77
-270.38
-284.97
-285.69
-280.85
-371.14
-353.94
-344.37
-342.63
-381.15
-424.49
-342.72
-392.21
-363.15
-383.35
-458.3
-467.4
-398.4
-487.29
-462.25
-407.54
-509.78
-514.94
-478.65
-472.64
-520.35
-472.01
-472.56
-492.13
-489.06
-501.26
-497.9
-509.86
-457.59
-506.12
-515.95
-541.51
-543.72
-489.34
-506.99
-451.16
-485.24
-505.49
-529.51
-498.75
-520.81
-437.78
-418.64
-493.74
-412.69
-420.09
-466.29
-389.17
-458.19
-408.15
-378.75
-361.52
-345.88
-337.86
-334.59
-335.56
-369.83
-284.71
-325.29
-337.48
-273.11
-303.28
-233.29
-300.03
-270.93
-264.03
-243.98
-157.89
-217.55
-224.03
-209.43
-140.22
-155.39
-99.94
-69.13
-123.88
-96.68
-70.2
-71.54
-27.59
-10.14
-20.43
-7.09
77.37
30.27
98.46
38.22
79.44
91.81
87.34
140.57
196.49
210.53
141.82
199.39
197.74
187.92
215.35
241.61
243.36
301.79
247.19
310.46
338.26
349.51
352.15
312
327.75
339.31
350.95
393.13
389.53
420.86
429.41
467.75
383.7
472.96
426
412.67
452.37
448.04
447.18
456.35
475.49
467.33
466.22
444.38
443.8
520.63
469.23
502.81
534.73
505.02
519.19
506.67
541.51
522.85
460.92
450.29
509.11
468.58
481.4
439.71
459.72
484.72
510.33
468.47
442.71
419.69
471.78
387.09
424.49
373.49
457.33
426.34
377
407.22
413.23
332.43
384.02
304.72
294.7
337.76
281.74
307.01
304.31
251.61
284.16
218.57
228.3
219.12
201.8
210.88
227.86
181.7
126.76
152.94
116.12
91.12
90
100.93
73.46
97.34
76.9
64.98
6.97
-57.31
15.07
-3.71
-33.44
-70.92
-84.68
-56.72
-125.42
-121.58
-108.05
-142.65
-143.26
-203.29
-160.98
-185.43
-231.39
-231.31
-277.39
-280.66
-263.55
-308.28
-306.82
-351.3
-330.47
-312.56
-361.33
-331.36
-403.48
-384.59
-400.02
-377.31
-393.35
-411.95
-454.65
-477.57
-424.96
-408
-449.83
-456.16
-431.4
-496.87
-523.27
-443.79
-520.74
-460.75
-471.95
-477.01
-502.89
-502.14
-465.22
-462.51
-499.23
-539
-506.53
-477.24
-531.43
-486.98
-519.34
-440.55
-482.94
-522.73
-464.72
1048.84
-429.36
-480.22
-459.19
-491.31
-433.78
-410.89
-413.07
-448.99
-435.43
-444.63
-359.62
-354.28
-342.16
-405.58
-356.83
-295.96
-365.43
-359.73
-360.4
-309.87
-239.98
-254.06
-281.98
-216.44
-277.65
-242.95
-211.66
-216.56
-189.19
-213.83
-167.28
-97.01
-155.4
-60.54
-124.13
-84.87
-20
-54.8
-67.77
-4.28
-14.52
-7.68
3.31
10.83
75.74
67.75
129.07
126.93
153.47
139.54
155.61
176.74
194.64
201.48
239.75
238.68
213.27
261.22
289.3
288.52
242.92
287.82
282.21
301.11
335.43
328.6
324.42
400.96
321.87
388
437.4
387.13
368.09
433.59
410.34
412.75
414.04
475
444.33
494.3
423.36
500.64
451.92
454.96
474.94
501.79
520.81
473.02
491.44
525.41
501.87
455.91
545.7
539.49
534.95
511.8
449.05
500.09
468.94
499.9
503.33
514.11
495.44
459.74
428.91
435.75
442.82
417.85
477.55
404.91
409.38
382.22
444.13
395.63
381.65
418.31
399.46
347.89
399.53
309.96
346.86
313.04
353.52
314.73
338.06
232.71
263.07
232.33
259.28
258.42
230.27
244.23
227.46
189.53
142.11
177.8
164.33
115.4
56.81
41.97
65.08
101.71
13.71
45.67
-37.1
-52.25
8.35
-38.81
-43.6
-61.36
-101.78
-87.67
-147.1
-109.48
-125.49
-116.07
-138.18
-165.04
-155.4
-223.47
-218.41
-209.09
-287.06
-231.78
-268.44
-259.62
1178.42
-268.21
-359.03
-348.9
-309.08
-363.12
-320.62
-387.2
-404.75
-427.43
-391.98
-411.62
-443.49
-443.95
-390.22
-476.73
-408.56
-472.1
-479
-515.88
-440.11
-490.57
-476.12
-478.25
-477.19
-535.43
-460.24
-512.1
-520.46
-526.31
-506.27
-501.57
-468.64
-532.24
-536.55
-516.32
-468.11
-516.39
-438.72
-446.65
-447.94
-501.93
-426.37
-487.41
-500.21
-422.09
-465.4
-483.02
-439.76
-465.13
-449.8
-428.81
-349.89
-351.25
-361.16
-372.79
-342.87
-370.51
-368.01
-286.52
-349.31
-330.72
-339.59
-323.25
-288.66
-251.46
-236.89
-257.71
-237.72
-214.17
-192.14
-144.44
-145.84
-97.91
-132.27
-145.93
-128.35
-66.62
-83.53
-76.94
-90.13
-53.31
-16.21
-6.86
-22.67
53.8
21.12
48.86
79.78
101.51
66.79
162.44
102.39
195.49
130.99
153.32
191.22
220.31
219.66
190.71
211.39
280.7
229.86
302.34
268.4
355.68
336.64
312.34
386.92
310.25
336.65
327.15
414.78
383.64
389.13
452.72
411.08
471.5
402.68
443.99
462.52
408.26
489.13
424.73
440.74
507.05
467.44
502.22
508.15
493.18
518.35
528.34
516.61
449.49
516.8
544.22
520.43
449.81
450.64
447.2
512.98
477.53
527.61
533.92
506.66
506.4
484.44
439.36
467.55
459.65
430.22
445.28
417.78
446.81
372.93
415.74
363.78
361.97
399.02
375.56
393.19
368.9
318.12
333.71
322.27
299.23
307.49
317.95
292.72
255.07
221.98
226.25
253.07
227.28
184.78
160.42
113.48
124.54
99.17
127.73
137.09
131.24
103.41
51.61
35.14
-18.54
14.11
25.5
-53.21
-35.8
-3.74
-30.78
-44.28
-111.27
-101.83
-79.34
-107.8
-120.5
-121.82
-175.67
-213.45
-184.81
-223.88
-221.88
-259.72
-290.19
-263.64
-248.51
-248.45
-270.04
-325.5
-352.99
-383.03
-308.34
-374.7
-386.98
-400.8
-388.79
-399.2
-405.04
-447.13
-466.6
-466.26
-437.63
-414.16
-452.61
-498.93
-418.91
-445.63
-459.37
-505.79
-466.18
-523.48
-465.71
-542.85
-454.19
-506.04
-457.46
-468.01
-451.45
-515.04
-472.81
-483.06
-469.69
-470.24
-484.81
-446.01
-521.8
-457.95
-442.8
-484.02
-494.99
-473.88
-481.63
-487.67
-483.26
-442.75
-392.22
-456.24
-432.52
-420.99
-404.73
-420.74
-325.49
-389.88
-352.1
-298.27
-293.65
-295.24
-309.96
-345.64
-237.3
-265.02
-243.66
-196.31
-211.17
-209.37
-187.53
-155.81
-221.86
-151.15
-155.56
-117.2
-92.44
-72.24
-132.5
-105.51
-47.03
-71.45
-66.46
10.31
-39.34
8.23
75.47
76.27
65.54
108.53
92.81
114.51
132.6
179.74
130.95
112.94
141.04
156.45
229.66
251.37
195.24
253.32
239.62
281.89
317.54
283.8
337.21
299.43
353.09
347.88
378.59
403.45
422.76
365.68
383.05
393.32
444.16
461.52
455.8
464.17
473.38
460.47
502.03
434.76
444.81
503.74
2026.97
457.76
448.37
445.87
501.16
457.27
532.39
482.78
519.91
523.77
523.14
538.97
483.31
460.4
470.22
543.33
472.13
480.78
524.48
455.7
492.08
469.7
454.44
500.76
480.73
406.01
463.63
459.03
380.11
437.56
414.68
410.53
350.91
373.06
386.03
343.36
306.23
327.71
335.94
360.01
330.16
294.72
266.39
314.17
246.64
273.37
242.01
200.89
163.91
215.59
203.74
188.68
130.58
97.1
128
126.5
65.03
107.97
87.11
96.88
78.25
25.74
25.42
-30.55
-43.74
-50.1
-69.02
-53.64
-94.42
-133.87
-125.26
-155.15
-158.6
-159.64
-136.19
-152.85
-224.85
-188.99
-206.29
-232.1
-295.58
-222.76
-260.01
-261.52
-322.56
-317.04
-367.64
-315
-398.5
-362.02
-419.85
-363.81
-387.67
-351.69
-431.99
-434.86
-403.6
-445.04
-440.81
-460.76
-452.44
-491.66
-444.43
-491.93
-459.27
-510.64
-494.81
-462.3
-457.54
-459.13
-490.86
-485.29
-483.18
-483.33
-477.43
-500.95
-537
-476.14
-466.67
-448.02
-497.26
-494.4
-467.96
-525.86
-457.94
-490.88
-424.22
-492.35
-503.36
-462.19
-483.6
-421.23
-392.21
-381.07
-384.87
-366.4
-425.84
-385.23
-355.2
-339.25
-315.19
-298.21
-343.46
-278.75
-294.46
-311.15
-268.62
-286.78
-271.96
-259.21
-263.84
-210.31
-201.35
-227.41
-209.07
-204.4
-146.67
-143.1
-145.7
-95.07
-101.35
-76.87
-60.88
-83.06
-19.46
13.47
16.58
1548.24
34.08
10.77
23.99
28.77
118.33
90.59
136.44
134.73
140.44
197.29
141.05
147.85
240.45
231.29
268.42
195.1
302.47
224.14
320.64
320.89
319.62
323.46
322.1
336.24
365.28
387.57
413.93
335.32
431.33
376.73
448.05
432.23
438.66
416.18
427.22
419.97
404.12
441.16
442.9
428.58
442.85
455.3
465.52
449.81
488.62
519.27
538.21
525.63
468.93
451.07
453.07
485.82
538.78
466.85
519.85
543.24
520.08
511.19
453.95
458
448.52
469.42
473.74
505.31
465.31
485.98
438.5
443.31
398.72
449.17
387.13
367.13
371.62
362.5
353.43
371.79
362.83
315.51
371.29
359.82
287.81
320.14
268.19
297.3
310.83
232.39
255.84
176.52
220.64
171.48
231.29
127.42
177.77
145.54
167.95
84.65
61.31
33
100.46
22.24
38.65
39.53
34.34
32.94
-1.09
-64.98
-9.88
-77.77
-118.92
-136.39
-94.63
-162.52
-104.98
-179.94
-217.65
-180.34
-161.42
-246.47
-217.94
-237.19
-217.81
-267.01
-255.64
-314.42
-253.61
-335.04
-302.67
-311.94
-375.81
-375.49
-322.98
-328.84
-408.36
-366.5
-431.94
-376.41
-404.82
-481.04
-398.89
-475.7
-418.47
-451.04
-496.91
-453.87
-425.26
-517.9
-511.49
-516.99
-473.98
-495.48
-492.68
-507.08
-525.73
-509.87
-464.85
-491.65
-513.57
-481.45
-514.46
-467.89
-538.69
-473.05
-488.93
-467.91
-434.32
-469.97
-451.68
-418.89
-474.99
-458.23
-450.68
-441.55
-407.95
-408.3
-453.05
-371.26
-384.85
-352.58
-420.09
-380.62
-377.56
-368.09
-357.34
-359.72
-322.67
-292.51
-283.17
-234.04
-314.95
-233.07
-281.81
-249.87
-240.29
-225.98
-222.08
-125.73
-173.21
-149.9
-176.27
-148.58
-118.41
-57.22
-65.03
-46.1
-23.56
-30.67
-58.58
-11.66
-21.26
61.26
29.11
56.94
57.82
138.83
145.33
101.29
139.21
143.7
141.52
204.74
230.08
193.46
195.52
240.08
209.88
273.62
266.39
301.16
303.01
266.47
355.42
301.59
362.7
389.73
341.25
372.06
402.38
432.09
413.5
442.48
382.73
436.47
460.23
414.18
405.48
417.19
494.39
490.43
506
449.56
475.4
439.15
451.57
480.56
474.46
501.19
450.09
503.95
498.8
528.83
543.3
516.62
448.13
478.55
522.46
537.29
438.44
464.66
529.58
480.69
518
448.68
479.97
458.68
403.73
482.84
443.04
403.97
391.21
396.93
420.03
416.06
392.24
335.04
406.85
328.35
312.85
304.46
277.27
295.33
265.54
304.35
286.36
217.75
234.9
219.2
237.16
168.05
235.96
129.48
119.22
134.01
119.49
101.21
78.09
62.35
53.74
74.35
18.93
28.06
29.52
-26.17
-43.44
-74.14
-59.33
-23.7
-38.76
-70.15
-81.27
-114.82
-168.58
-179.64
-173.06
-149.18
-229.82
-161.53
-187.11
-196.57
-283.08
-257.64
-307.24
-322.44
1176.6
-308.06
-314.13
-354.96
-329.17
-313.01
-339.21
-353.55
-349.33
-353.11
-446.63
-387.42
-379.88
-383.69
-399.38
-405.45
-414.84
-490.85
-470.92
-504.48
-453.01
-469.86
-472.38
-528.45
-473.76
-453.36
-533.58
-467.37
-482.33
-479.21
-476.53
-468.73
-508.74
-489.56
-522.4
-521.13
-529.65
-519.21
-518.22
-444.63
-509.84
-496.71
-476.79
-466.44
-447.8
-466.63
-421.03
-477.52
-444
-399.24
-414.48
-419.52
-437.14
-414.31
-425.66
-418.16
-339.9
-320.69
-340.07
-282.1
-361.43
-322.72
-331.64
-243.97
-224.39
-275.61
-276.14
-250.8
-228.44
-209.04
-161.78
-142.32
-207.74
-150.68
-178.32
-157.22
-120.64
-72.3
-44.88
-38.36
-47.94
-74.4
-33.69
-43.27
36.21
45.16
-4.72
86.59
42.19
67.42
91.19
104.7
118.19
172.26
157.07
131.1
208.71
189.78
267.12
279.14
281.92
232.77
282.93
321.67
299.72
344.62
329.11
306.06
381.01
312.99
355.32
397.37
368.29
390.04
355.68
409.09
456.32
380.66
386.57
425.02
458.04
485.1
439.05
496.51
507.53
498.7
453.62
475.59
473.63
469.71
476.6
488.27
541.03
534.14
545.45
455.21
546.7
524.3
519.81
510.99
516.27
521.55
453.81
508.97
530.29
436.73
469.9
489.9
495.15
411.2
423.31
484.85
422.32
427.59
377.56
403.62
398.77
389.59
430.98
396.08
322.5
398.22
376.38
318.56
328.75
320.47
347.72
1832.29
265.76
257.06
273.43
237.86
262.54
241.87
192.57
184.2
149.46
196.65
96.23
93.37
93.19
120.45
116.94
99.42
41.05
31.63
30.57
-43.91
-18.95
3.67
-61.56
-103.27
-30.35
-89.43
-80.12
-93.11
-166.25
-176.24
-165.95
-219.52
-148.47
-205.43
-214.58
-226.2
-283.63
-281.83
-280.24
-279.84
-285.18
-292.58
-338.59
-284.11
-291.44
-361.93
-345.98
-384.73
-358.26
-436.78
-433.6
-421.04
-399.58
-380.81
-432.74
-442.29
-476.02
-497.23
-464.72
-504.42
-467.94
-475.16
-464.79
-458.23
-459.42
-510.16
-495.64
-467.03
-542.87
-482.28
-522.08
-482.32
-498.24
-508.41
-537.19
-511.45
-448.77
-449.49
-469.16
-505.15
-480.18
-440.36
-491.36
-494.92
-488.25
-424.3
-481.97
-403.35
-476.12
-472.69
-450.17
-365.24
-423.76
-444.3
-391.94
-359.34
-408.27
-379.75
-349.52
-377.56
-342.76
-281.28
-332.24
-307.97
-266.99
-307.73
-288.93
-248.12
-210.64
-190.62
-225.45
-145.38
-169.51
-202.34
-136.84
-113.89
-145.4
-143.59
-105.29
-66.48
-0.33
-72.54
-20.82
-8.86
18.24
-16.79
64.14
57.67
66.17
35.43
64.23
104.88
151.41
183.67
148.59
197.18
195.86
211.74
166.47
179.57
263.91
280.68
258.98
296.55
335.72
278.18
338.24
306.96
311.94
376.54
315.17
384.16
361.67
415.27
439.45
360.17
414.51
473.97
406.62
474.39
495.83
478.53
480.99
454.28
433.92
490.26
480.14
448.63
489.67
510.74
492.48
501.13
481.92
538.64
475.76
544.14
539.59
487.55
504.77
476.27
479.58
518.63
489.5
491.31
509.43
509.1
424.87
468.91
459.95
454.2
435.9
462.48
475.86
441.66
389.01
406.74
421.27
446.02
384.76
329.13
382.46
383.44
318.35
319.8
353.37
277.53
347.32
285.01
269.49
273.24
206.99
190.6
257.22
217
235.15
203.18
171.36
176.87
162.8
164.05
80.58
87.67
49.59
114.12
61.74
53.12
-22.84
17.65
24.78
14.41
-81.55
-60.4
-51.12
-119.04
-128.01
-94.6
-154.32
-97.76
-176.82
-211.79
-166.99
-193.44
-194.4
-258.26
-249.02
-247.13
-256.45
-232.52
-286.65
-271.04
-275.15
-331.64
-287.54
-312.92
-400.78
-337.24
-362.93
-359.95
-404.22
-431.42
-458.11
-403.61
-434.8
-426.45
-448.1
-411.1
-422.84
-423.14
-443.39
-499.19
-444.83
-479.58
-514.46
-501.97
-525.94
-533.01
-495.8
-531.25
-475.79
-496.34
-514.53
-462.63
-541.3
-526.66
-446.68
-481.16
-470.29
-480.16
-467.34
-458.01
-463.59
-494.13
-468.76
-419.41
-472.22
-470.04
-454.52
-399.48
-453.62
-460.49
-457.24
-387.72
-386.48
-421.49
-420.39
-395.51
-332.97
-323.52
-283.14
-318.91
-329.81
-287.33
-321.29
-267.99
-281.31
-252.56
-192.91
-221.96
-175.55
-144.16
-191.01
-168.54
-178.68
-174.78
-125.76
-104.02
-79.25
-71.66
-37.82
3.79
-49.44
-40.14
1548.11
2.9
7.59
7.88
100.59
41.6
130.86
145.37
90.37
178.53
159.71
184.47
215.3
161.96
162.97
222.81
215.34
239.19
230.74
274.81
301.34
334.96
274.61
323.19
361.42
312.86
351.39
404.37
398.67
430.96
402.43
370.89
456.5
468.73
404.14
395.35
450.81
460.61
475.34
503.69
515.96
493.02
527.31
484.04
514.44
492.73
448.85
447.35
463.5
537.8
450.52
529
478.3
527.85
523.94
467.26
525.34
491.61
532.7
530.76
480.19
523.53
498.52
422.15
472.61
496.6
476.65
478.79
407.71
467.21
472.35
465.72
388.73
410.74
362.45
353.59
338.19
348.64
339
332.85
378.75
288.33
267.9
276.12
319.12
285.47
273.37
194.88
197.74
183.84
176.08
152.59
161.53
132.94
113.83
113.27
78.21
146.68
75.72
67.95
77.53
73.82
-6.97
-2.77
15.3
-57.16
-10.77
-35.17
-94.11
-106.64
-93.25
-102.65
-117.37
-146.85
-133.29
-169.85
-229.07
-238.32
-185.73
-230.41
-223.12
-208.32
-248.66
-258.86
-244.09
-311.15
-293.51
-278.57
-320.18
-331.86
-322.61
-329.13
-342.01
-387.94
-438.24
-376.86
-447.91
-396
-388.1
-430.04
-460.03
-495.8
-494.24
-476.96
-476.7
-493.77
-491.19
-455.38
-503.34
-523.43
-476.97
-461.69
-538.14
-475.01
-470.47
-489.14
-464.01
-534.78
-449.12
-529.55
-512.27
-492.36
-531.33
-482.52
-437.24
-530.11
-508.85
1016.82
-452.85
-473.6
-487.89
-452.96
-417.35
-476.44
-408.26
-408.2
-425.04
-392
-346.56
-409.85
-324.65
-318.82
-364.14
-310.07
-316.76
-311.99
-332.56
-280.85
-321.54
-242.95
-294
-218.56
-185.92
-249.98
-169.71
-154.03
-179.46
-200.57
-129.79
-89.32
-121.32
-135
-86
-119.51
-24.93
-58.71
-13.78
-22.49
12.1
29.48
-18.52
23.04
57.74
117.69
87.81
153.09
144.99
118.75
138.29
124.72
152.54
236.15
222.15
264.38
256.84
204.79
270.57
295.75
301.64
253.86
316.88
324.81
294.75
330.78
367.71
373.67
327.61
412.05
400.77
443.06
449.54
431.14
403.75
454.02
454.32
469.63
492.58
450.38
492.02
457.5
508.04
441.1
495.94
441.13
460.19
538.02
509.97
464.08
505.14
468.57
476.86
491.89
453.7
501.75
509.26
504.16
495.79
529.93
506.35
492.1
485.16
513.2
444.8
444.58
478.71
426.63
467.49
398.87
408.89
443.02
440.59
445.35
385.6
403.02
335.55
349.37
373.36
382.97
340.39
343.07
341.18
267.63
335.13
275.29
241.28
236.2
187.43
253.05
200.37
163.02
211.73
205.65
102.82
112.29
87.3
143.49
114.61
107.29
79.38
82.81
24.2
41.39
-14.61
31.71
-5.37
-44.04
-9.3
-85.53
-117.29
-92.35
-114.97
-87.4
-145.47
-143.41
-191.86
-188.92
-223.65
-187.82
-274.46
-195.15
-236.57
-257.45
-326.03
-274.49
-293.25
-321.27
-319.19
-300.56
-302.08
-321.24
-327.44
-387.26
-423.33
-381.22
-364.84
-389.27
-462.87
-449.16
-455.53
-436.3
-430
-478.76
-491.79
-491.53
-461.24
-457.26
-528.89
-514.74
-474.03
-464.57
-506.38
-476.92
-524.99
-541.66
-533.06
-492.03
-476.41
-547.15
-456.02
-543.65
-502.59
-482.27
-506.15
-450.08
-525.91
-477.32
-499.34
-487.01
-492.99
-472.08
-467.01
-401.11
-445.01
-451.74
-365.86
-440.76
-412.38
-346.44
-418.15
-410.01
-373.25
-358
-337.48
-338.33
-297.85
-319.01
-290.49
-287.98
-258.59
-288.06
-236.95
-233.97
-243.13
-189.35
-231.21
-171.31
-105.18
-162.98
-147.69
-68.59
-85.15
-69.62
-44.72
-27.13
-9.82
25.48
-39.03
59.41
58.05
56.13
24.92
36.18
43.5
108.84
102.01
112.31
118.73
118
124.28
160.23
249.95
191.87
273.82
202.53
232.04
296.2
258.51
264.11
320.04
266.35
344.76
316.77
375.14
409.42
413.61
341.45
410.36
393.22
398.95
411.03
385.29
425.37
470.36
454.19
416.76
439.98
441.81
467.69
520.51
454.36
519.55
451.02
486.39
533.16
471.1
533.08
516.7
475.76
464.94
543.2
516.42
484.19
476.36
449.83
468.4
443.2
500.27
525.96
430.87
504.95
488.82
420.14
487.6
448.21
486.5
427.88
459.66
466.94
418.44
412.39
422.65
392.18
412.88
344.64
366.65
308.92
358.85
316.86
319.67
308.4
1790.97
263.75
281.64
242.13
218.78
264.48
218.12
152.22
164.05
177.89
148.79
160.86
151.08
81.6
83.29
65.63
108.2
40.19
63.16
-10.51
9.89
2.16
-48.83
-85.05
-88.78
-85.21
-131.86
-143.62
-82.91
-164.39
-92.16
-204.34
-150.33
-137.24
-172.98
-176
-216.08
-216.07
-208.45
-234.21
-275.06
-295.07
-269.7
-312.92
-357.51
-375.19
-336.96
-377.24
-353.43
-418.26
-381.21
-403.98
-425.14
-429.27
-395.14
-433.97
-488.55
-432.86
-473.79
-429.63
-481.21
-493.77
-518.84
-510.4
-514.79
-522.76
-493.45
-486.24
-536.83
-458.59
-500.18
-509.81
-500.56
-495.84
-521.28
-544.52
-474.01
-474.99
-477.66
-441.33
-519.09
-528.88
-528.88
-464.36
-503.79
-416.52
-435.82
-411.01
-438.27
-410.12
-439.34
-392.39
-388.74
-358.78
-443.98
-354.67
-402.87
-409.56
-384.63
-354.59
-367.25
-294.23
-278.34
-314.21
-325.18
-312.51
-262.63
-261.85
-271.03
-179.41
-182.01
-205.21
-172.16
-205.2
-110.92
-188.4
-104.47
-69.6
-127.45
-109.59
-70.88
-11.14
-13.74
-15.82
-33.4
-27.72
46.62
43.87
14.56
67.22
30.33
47.28
104.45
109.96
165.26
165.82
191.82
147.56
195
174.25
238.15
270.8
274.3
220.5
256.59
272.84
320.94
288.94
287.72
329.71
360.53
313.18
344.78
402.9
347.04
405.35
356.14
383.81
440.48
390.64
474.56
450
417.69
413.14
436.39
518.28
430.61
1942.97
501.77
516.95
508.74
504.9
517.13
535.67
478.27
511.99
540.38
519.91
487.83
513.72
484.63
519.86
462.65
498.05
524.85
454.52
446.62
509.35
448.07
473.92
471.85
498.03
433.42
428.08
474.64
376.94
422.61
379.36
381.37
433.62
388.37
394.28
404.32
400.56
346.77
352.13
277.16
305.64
321.12
267.12
292.89
285.56
237.71
226.34
222.66
240.03
211.06
125.35
148.09
101.2
106.61
110.49
70.8
67.16
122.29
72.77
13.36
49.67
-19.27
-38.14
-56.19
-55
-5.34
-62.1
-54.19
-135.38
-114.16
-130.41
-90.24
-147.53
-130.18
-201.08
-144.98
-211.9
-225.19
-270.25
-209.15
-305.8
-262.86
-239.73
-262.5
-263.34
-354.35
-363.96
-314.68
-360.55
-319.64
-386.06
-435.04
-363.72
-450.65
-407.27
-460.77
-388.49
-470.99
-400.86
-446.46
-472.44
-498.73
-479.79
-429.02
-434.83
-449.14
-498.99
-523.32
-469.53
-457.79
-487.62
-530.31
-534.97
-493.87
-539.57
-491.46
-486.69
-482.2
-528.2
-455.88
-517.3
-466.79
-497.77
-449.4
-481.81
-471.34
-502.55
-444.36
-460.05
-483.97
-451.99
-472.76
-465
-372.65
-372.75
-384.81
-380.23
-334.64
-343.87
-321.97
-368.19
-324.91
-348.64
-339.29
-315.93
-280.84
-322.26
-271.42
-294.29
-261.48
-222.02
-177.72
-174.69
-238.77
-220.3
-161.08
-122.82
-109.9
-160.7
-72.51
-131.67
-80.95
-24.33
-60.11
-67.25
2.78
1537.07
25.94
43.42
63.77
108.11
46.29
122.31
63.44
168.16
179.77
193.46
208.35
203.51
142.51
220.39
215.78
274.56
201.83
288.9
274.94
315.12
319.34
323.44
335.8
286.09
325.82
346.41
386.52
325.94
373.15
346.34
391.02
372.52
430.5
397.73
424.52
398.42
416.06
416.14
456.87
426.13
429.52
430.31
516.68
459.96
461.85
508.21
480.37
488.84
514.67
499.96
471.5
535.41
502.89
541.02
537.7
487.96
446.5
491.15
522.93
486.15
499.85