1800.13
399.81
-873.94
214.81
489.69
168.75
801.06
884.69
948.69
1313.56
1004.06
549.44
462.38
325.38
185.53
180.22
123.38
65.28
81.72
83.09
1.34
-31.56
44.63
77.12
604.19
1579.69
670.53
-1129.16
-738.37
-151.78
-481.66
-170.97
-0.83
-307.14
-339.23
-389.75
-446.06
-296.3
-289.91
-415.47
-373.89
-173.11
-23.03
110
236.94
324.84
430.87
448.88
849.26
1793.3
1398.63
-278.71
-255.19
892.79
1025.78
508.61
-118.86
-376.65
-179.84
-76.63
-55.82
23.38
43.31
10.59
-5
56.69
57.19
-65.37
-79.08
-44.72
-262.72
-228.94
547.84
271.84
-949.59
-753.62
-365.12
-648
-470.09
-453.53
-661.75
-455.59
-349.81
-438.06
-420.41
-419.25
-524.62
-692.19
-812.94
-846.81
-766.31
-818.37
-444.69
543
-258.06
-2020.56
-1613.31
-1047.44
-1384.88
-1003.31
-916.81
-1144.88
-888.44
-813.75
-855
-707.44
-620.44
-576.69
-542.63
-584.44
-468.06
-340.81
-610.75
-358.75
731.5
65.44
-1478.63
-897.31
-451.16
-791.16
-409.72
-434.75
-616.03
-386
-357.06
-262.97
-208.97
-379.09
-318.56
-251.19
-261.94
-130.81
-57.34
490.03
1734.75
1268.39
-756.48
-721.87
144.53
-215.52
-178.62
67.19
-134.95
-41.67
53.86
-13.44
59.04
38.86
40.79
110.65
97.13
157.55
205.73
-56.37
461.76
1692.81
450.05
-1274.52
-189.73
196.21
-302.52
299.6
290.42
309.48
963.98
1014.02
835.73
671.53
380.75
276.48
262.52
201.89
231.28
271.73
143.48
645.08
1651.8
505.95
-1354.81
-592.83
23.38
-433.05
7.64
154.5
-67.5
144
230.16
227.78
335.56
325.34
315.37
337.63
125.53
-269.16
-395.25
-277.19
371.34
1677.59
1095.66
-809.75
-442.37
412.06
151.59
508.72
755.5
547.69
785.69
881.44
848.09
981.06
971.44
928.63
894.06
764.31
717.03
692.47
426.66
714.84
1671.66
1055.59
-292.5
216.81
593.63
256.69
582.45
491.69
242.09
384.31
294.09
209.41
230.42
96.41
-28.64
-71.81
-32.12
20.34
-116.45
270.67
1017.8
204.69
-922.95
-300.96
-83.53
-230.65
697.4
516.74
-602.59
-638.9
-433.12
-619.95
-593.63
-569.66
-586.55
-479.5
-522.67
-756.45
-473.84
552.23
-43.92
-1587.78
-1046.75
-562.02
-1066.59
-824.72
-770.91
-956.36
-706.22
-703.84
-828.81
-779.44
-789.5
-866.84
-875.47
-756.59
-710.03
-115.37
1129.11
498.89
-1611.75
-1542.5
-653.34
-922.33
-684.16
-317.3
-430.41
-274.88
-96.86
40.38
363.97
480.48
349
279.02
242.19
253.66
217.25
242.14
950.16
1320.2
-200.56
-1020.98
124.23
358.24
165.36
360.01
-117.74
-374.64
-271.21
-412.3
-334.23
-250.67
-324.53
-196.54
-167.84
-244.84
-159.72
-108.86
-264.39
415.93
1581.14
144.35
-1550.65
-256.4
184.55
-409.18
121.3
2.45
-239.17
59.68
0.59
-38.13
-10.34
-26.32
47.02
6.19
-151.37
-444.36
-895.3
-885.64
348.89
1916.13
1065.56
-882.11
-296.69
579.86
290.5
635.66
753.16
432.47
580.8
655.22
584.58
678.91
659.27
636.34
685.7
920.44
1697.92
2208.16
1802.13
1733.61
2268.56
1894.48
973.78
741.61
781.11
686.38
660.48
524.43
351.37
327.34
229.08
136.02
94.63
4.71
-103.51
-208.37
-294.11
-302.06
-317.17
27.96
933.31
526.97
-1062.53
-1176.84
-685.26
-972.02
-947.27
-862.88
-1057.55
-949.38
-924.64
-984.55
-900.95
-909.13
-896.33
-870.2
-811.28
-671.19
-732.84
-184.87
1017.87
128
-1742.88
-1211.84
-639.81
-1083.47
-753.28
-705.37
-840.66
-526.87
-570.92
-664.55
-490.23
-475.39
-566.05
-562.62
-514.92
-409.28
-593.14
-96.41
1335.52
254.3
-1723.66
-662.19
-122.83
-762.34
-95.29
30.22
-182.66
194.34
217.36
139.8
127.87
22.09
-20.71
-79.2
-149.77
-72.67
-38.23
729.08
2088.2
879.58
-1116.76
160.8
829.89
-558.69
-209.93
386.87
11.65
219.01
311.82
20.43
-5.47
4.12
-15.46
85.57
127.41
21.11
-116.44
-64.33
10.61
42.86
929.48
1693.53
153.83
-1066.89
-13.14
130.72
-217.72
289.56
176.33
88.37
336.28
260.05
243.83
323.52
308.75
312.81
308.11
295.53
273.03
216.03
240.97
198.78
-11
551.22
1520.94
-21.34
-1818.22
-605.53
-95.12
-576.03
10
-30.31
-412.81
-296.34
-180.16
122.72
407.81
599
938.44
1039.91
1016.53
1206.47
1457.53
1627.22
1589.94
1603.09
2137.25
2199.47
1385.89
1321.31
1617.11
1359.06
1223.55
1006.06
734.05
732.47
676.7
633.57
586.35
417.66
261.89
105.65
-82.71
-123.21
-108.36
42.02
651.03
475.87
-854.25
-1295.48
-859.31
-938.34
-1016.28
-995.88
-1219.72
-1157.09
-1073.41
-1147.38
-1119.22
-1169.66
-1214.41
-1206.03
-1221.31
-1126.03
-1012.12
-1198.72
-795.28
471.31
-261.84
-2082
-1473.44
-880.72
-1378.38
-992.78
-849.59
-921.34
-525.38
-437.81
-445.41
-434.81
-535.87
-615.97
-714.41
-734.03
-719.81
-674.69
82.28
565.16
-1091.22
-2081.12
-932.25
-822.5
-1042.56
-432.56
-523.31
-566.28
-217.33
-277.56
-221.25
-62.11
-64.69
-1.42
9.91
9.51
124.86
80.2
705.09
2020.24
1195.77
-317.62
363.77
514.06
-54.8
340.85
189.83
-186.97
60.22
169.21
190.02
139.33
-28.74
-50.63
-65.31
-90.42
46.23
163.78
439.27
1334.27
1286.03
-343.11
-787.5
-13.02
-116.16
-107.52
238.78
18.62
150.36
540.8
564
630.16
695.91
618
599.66
446.31
289.06
499.59
524.59
1046.81
2236.75
1249.53
-501.28
219.5
608.31
17.87
420.31
436.66
149.44
345.53
312.44
263.06
387.91
379.19
428.88
475.87
287.91
255.34
382.72
775.44
1732
1697.69
156.19
-219.8
765.7
1275.13
1314.61
668.28
51.73
289.31
412.95
354.52
437.45
468.55
397.02
238.83
185.49
192.03
14.33
188.73
773.97
215.67
-849.98
-555.96
-214.9
-481.4
-341.3
-332.39
-468.95
-287.37
-321.3
-396.63
-260.05
-279.13
-377.91
-336.59
-355.61
-72.28
853.23
498.25
-1214.38
-1459.63
-916.81
-1176.69
-1166.16
-1062.13
-1258.84
-1134.09
-1072.97
-1120.34
-1028.09
-1022.47
-988.78
-821.37
-710.84
-847.97
-423.25
749.25
54.38
-1565.41
-892.13
-415.75
-920.59
-526.09
-393.19
-487.56
-234.36
-243.03
-345.37
-324.83
-384.72
-448.48
-370.27
-282.55
-558.55
-87.73
1312.23
7.44
-2148.71
-1102.79
-551.94
-1122.63
-454.36
-270.66
-294.51
118.02
70.19
88.21
191.1
107.66
128.98
120.33
60.01
197.29
321.85
173.87
812.56
2236.69
1562.5
-115.17
362.66
574.48
-31.8
252.39
188.56
-16.94
164.7
204.3
406.8
634.69
510.63
308.59
166.19
190.38
505.97
841.56
886.5
653.56
1213.59
2046.06
606.75
-819.5
199.44
388.78
-58.22
434.03
224.94
-146.31
-251.25
-351.28
-81.69
-36.66
-90.94
-8.91
-206.91
-302.78
-72.41
50.66
256.38
527.03
1233
2566.88
2032.19
148.56
324.91
987
630.69
748.5
766.34
511.59
699.88
815.64
797.22
947.12
1139.63
1196.52
1177.08
1197.53
1207.83
1144.18
1108.27
1015.34
1066.77
1078.07
248.22
-344.6
-103.27
-199.93
-432.64
-439.67
-612.05
-664.3
-579.38
-680.72
-733.95
-728.97
-742.12
-718.06
-749.77
-785.13
-742.59
-956.16
-750.81
290.09
-437.31
-2042.22
-1412.78
-930.59
-1392.19
-1036.19
-972
-1153.91
-897.66
-907.94
-945.97
-847.41
-861.97
-821.19
-795.16
-820.63
-696.34
-706.22
-247.72
984.78
158.87
-1760.78
-1241.81
-723.13
-1186.03
-683.72
-541.19
-862.5
-612.47
-553.78
-601.09
-499.62
-545.28
-548.22
-481.78
-488.02
-408.34
-233.41
-223.39
515.09
1858.8
818.7
-1311.77
-783.41
-78.55
-481.2
189.05
990.03
867.51
310.01
10.09
106.33
102.19
71.56
126.96
121.24
96.8
151.26
232.6
397.25
666.3
1379.85
2115.05
1117.29
-227.08
221.34
495.4
231.22
530.63
352.81
73.62
167.66
-15.93
-186.04
-213.58
-291.7
-301.17
-225.03
-154.92
-96.56
-64.22
6.78
-8.05
62.16
838.73
1055.39
-579.48
-1437.09
-460.87
-272.05
-438.36
-200
-508.03
-494.92
-90.23
-26.91
119.25
342.34
415.47
567.97
647
594.88
561.09
542.09
596.16
552.53
1114.66
2396.94
1730.03
-291.66
-151.44
499.44
173.5
460.59
665.47
496.56
730.53
906.34
845.56
905.87
978.23
994.11
1012.81
944.28
925.95
932.89
818.86
929.2
1539.64
1485.84
260.61
-280.64
147.77
118.48
-21.07
93.02
-68.1
-157.88
-178.62
-357.86
-408.23
-404.65
-438.12
-461.7
-439.29
-388.52
-453.22
-203.42
558.05
82.03
-1422.3
-1453.33
-934.34
-1118.33
-1071.16
-988.42
-1115.41
-1030.53
-982.34
-1038.97
-976.37
-915.59
-928.66
-941.59
-898.25
-825.62
-943.09
-495.78
749.16
-64.87
-1893.53
-1246.44
-701.78
-1150.22
-686.22
-460.53
-568.59
-337.25
-340.31
-402.86
-336.45
-327.36
-311.48
-294.95
-196.3
-152.89
438.3
1711.05
998.69
-1184.6
-1032.41
-147.95
-454.34
-166.67
161.43
-10.02
122.52
177.48
87.8
104.5
57.57
52.99
140.71
169.94
282.77
382.78
246.41
673.46
1885.03
1439.78
-149.22
70.14
406.81
16.12
335.3
484.23
277.3
285.61
152.08
-10.77
-65.3
-152.75
-136.95
-75.61
-43.39
23
53.87
225.38
1023.25
1208.92
-347.69
-1034.92
-167.52
-292.41
-837.25
-696.27
-573.27
-463.48
-490.97
-625.39
-466.88
-341.56
-415.41
-312.83
38.48
246.66
340.5
482.59
542.69
1190.31
2168.97
1212.03
26.41
1062.66
1392.91
957.03
1344.56
1188.19
979.75
1190.91
1093.56
1038.63
1154.31
1136.09
1120.75
1163.25
1219.72
1229.11
1004.3
858.84
1223.11
1073.97
114.47
12.77
318.74
79.23
26.69
15.63
-136.49
-133.89
-191.26
-262.68
-252.83
-408.76
-580.23
-609.11
-611.05
-541.84
136.92
801.77
-364.69
-1780.14
-1398.73
-1112.17
-1372.06
-1171.17
-1209.34
-1284.31
-1087.78
-1045.78
-930.66
-782.66
-773.94
-727.41
-632.03
-540.06
-482.75
18.78
1009.56
359.78
-1337.72
-1103.56
-512.41
-847.09
-623.91
-350.53
-492.63
-469.22
-486.97
-580.56
-599.53
-631.53
-661
-735.77
-724.66
-578.8
-525.33
144.2
1403
421.66
-1694.69
-1200.48
-417.37
-761.53
-364.2
-55.17
-144.17
74.59
130.92
127.61
343.28
590.91
854.25
1030.07
936.18
669.47
736.63
894.06
568.95
698.88
1409.91
626.88
-691.75
-399.55
-366.11
-783.33
-536.92
-674.33
-835.73
-589.54
-591.14
-594.84
-471.84
-468.37
-363.93
-237.98
-208.75
-119.45
28.24
169.13
217.25
563.56
1503.75
1397.47
-370.67
-780.44
-16.22
-611.19
-754.78
3.06
-195.16
-325
141.05
182.72
-127.78
-475.31
-397.75
127.59
461.94
696.19
945.59
1098.91
1213.91
1222.47
1656.09
2629.75
2126.13
587.66
733.62
1300.38
1044.13
1152.53
1230.69
1009.34
1097.56
1160.16
1096.56
1086.78
1016.97
939.59
823.84
710.77
661.62
591.25
310.08
399.77
1177.77
663.83
-744.81
-491.14
-138.94
-661.81
-555.14
-533.88
-779.19
-613.38
-572.57
-668.41
-609.28
-644.13
-707.17
-663.83
-696.87
-661.38
-568.63
-757.52
-479.11
541.33
-148.84
-1706.89
-1128.94
-671.69
-1076.39
-721.55
-687.19
-854.8
-627.7
-660.02
-698.05
-569.17
-582.12
-541.95
-498.72
-478.98
-320.81
-236.94
-154.98
633.02
1054.97
-539.69
-1451.16
-387.48
-270.17
-506.14
94.91
441.03
844.86
945.02
633.7
650.11
290.81
-34.89
34.58
-283.55
-578.97
-604.2
-753.83
-530.66
388.12
332.08
-1208.39
-1564.23
-644.39
-595.27
-560.44
-228.41
-377.27
-287.33
-119.91
-345.32
-793.26
-1080.24
-853.88
-659.74
-681.37
-540.66
-649.02
-1037.67
-477.83
992.74
781.41
-921.17
-816.77
115.42
109.94
372.49
635.1
557.85
752.96
911.66
899.28
1002.09
1110.06
1184.56
1231.16
1244.34
1384.25
1496.16
1340
1408.95
2267.47
2372.34
1163
953.52
1399.14
1050.97
934.72
969.58
681.41
697.02
661.13
465.27
439.55
316.55
90.68
-22.74
-82.25
-200.08
136.68
974.75
554.63
-1085.4
-1402.53
-672.54
-278.91
-407.8
-1266.48
-1635.41
-1271.59
-1274.36
-1285.27
-1114.16
-1108.33
-1063.66
-1017.42
-993.17
-853.27
-983.45
-529.31
776.33
-104.42
-1851.23
-974.87
-458.47
-980.78
-496.34
-421.27
-620.33
-349.75
-377.05
-428.61
-319.67
-363.84
-293.95
-134.94
-83.1
-230.69
384.91
1737.88
590.71
-1348.16
-396.81
128.06
-405.81
209.66
324.12
94.97
339.34
284.12
363.02
893.21
1070.57
487.66
60.45
165.02
167.51
114.85
922.61
1680.29
84.1
-1234.99
-217.4
-167.13
-619.96
-166.85
-357.7
-447.71
-136.24
-192.33
-106.22
-9.69
-34.95
7.77
12.67
103.73
225.27
334.59
1109.91
1651.89
201.83
-742.95
225.81
297.64
-1.56
332.37
61.55
-126.7
-180.56
-565.55
-494.91
-367.53
-389.34
-96.73
119.41
182.37
402.3
392.08
866.03
2081.75
1103.95
-672.56
107.14
579.3
116.42
536.97
603.48
452.61
624.31
634.63
699.34
793.39
772.17
759.37
818.59
870.42
864.97
1097.59
1793.12
1786.14
513.92
-57.59
342.98
239.51
55.6
96.63
-55.18
-10.34
50.67
-81.26
-93.65
-185
-318.5
-351.78
-389.97
-545.43
-104.62
958.69
154.05
-1619.48
-1298.5
-826.02
-1206.19
-957.67
-891
-1010.02
-799.17
-790.8
-813.33
-730.44
-775.12
-782.25
-730.75
-700.03
-650.44
-52.84
1067.97
207.19
-1767.97
-1382.69
-691.59
-1118.09
-824.59
-547.87
-692.3
-457.55
-325.94
-335.63
-226.66
-171.84
-184.72
-144
19.06
55.28
588.02
1741.33
993.52
-1106.05
-1006.5
-266.22
-536.23
37.17
788.22
616.36
344.34
236.75
-33.46
-156.3
-0.96
-57.31
-339.81
-527.02
-591.59
-755.59
28.98
1425.73
-46.3
-2208.75
-1120.73
-478.55
-1001.94
-335.33
-212.59
-370.79
46.49
113.35
-50.37
-379.72
-615.6
-284.65
-49.02
-90.55
129
267.07
196.37
921.39
1942.88
809.61
-482.77
501.31
676
198.97
664.06
564.2
407.12
609.02
363.45
84.31
-184.63
-544.11
-496.45
-148.64
220.67
577.17
834.28
821.78
1334.25
2403.94
1613.44
269.31
1027.19
1404.59
947.25
1221.19
1130.95
925.2
1044.5
948.16
910.52
868.28
742.28
621.95
495.52
445.16
393.95
125.98
309.23
1197.59
682.41
-642.47
-275.68
137.12
-222.72
-119.62
-216.15
-363.96
-206.51
-334.9
-419.9
-399.29
-500.56
-582.86
-644.99
-631.53
-629.94
-274.73
722.44
326.08
-1381.77
-1057.97
135.63
-371.92
-1121.89
-1007.23
-839.38
-816.16
-655.86
-600.66
-521.16
-232.56
-74.28
-79.94
-1.44
-73.66
-511.25
-340.72
603.78
-48.41
-1622.28
-1189.91
-672.94
-1071.06
-759.25
-564.34
-673.28
-511.47
-504.16
-612.16
-591.47
-590.08
-594.58
-564.87
-513.63
-445.02
-494.42
110.91
1282.48
370.88
-1471.73
-911.64
-286.03
-640.83
-184.75
278.81
614.2
783.87
395.09
337.91
368.59
33.22
1.41
28.2
-162.54
-152.57
-76.2
-138.22
437.52
1629.61
776.91
-1233.92
-869
-98.92
-446.33
-187.89
-83.47
-476.72
-294.74
-124.26
-391.68
-724.79
-853.42
-801.33
-804.71
-676.03
-365.85
-26.56
153.59
425.75
1313.25
1393.42
-110.31
-446.06
533.05
545.59
598.3
1028.63
989.44
1167.38
1436.22
1458.34
1630.59
1687.09
1535.22
1495.75
1427.59
1395.06
1258.78
1264.03
1840.38
1545.7
368.86
315.02
601.23
302.67
324.31
285.34
43.92
78.28
69.2
-28.5
21.41
11.61
-106.01
-112.34
-138.48
-289.55
-39.82
725.96
205.32
-1386.36
-1469.11
-947.13
-1189.15
-1173.62
-991.88
-1019.96
-931.62
-940.36
-957.59
-845.41
-845.55
-846.41
-873.48
-928.23
-872.12
-136.77
1144.77
262.65
-1758.23
-1186.09
-382.26
-763.12
-404.06
-161.53
-240.48
21.97
89.2
-8.91
10.6
-25.76
-102.93
-59.07
61.75
-147.76
244.29
1535.28
476.92
-1449
-574.39
-92.68
-631.26
-69.28
-18.11
-225.15
79.36
31.32
63.41
205.37
149.52
167.12
186.53
171.71
165.32
755.44
1911.19
1160.91
-779.42
-459.13
192.17
-284.22
2.08
430.22
473
524.42
290.55
82.16
96.14
-100.19
-360.5
-344.92
-295.91
-331.14
-291.02
-380.95
272.05
1546.55
177.25
-1522.3
-158.28
286.06
-230.91
377.02
201.73
-56.61
354.7
276.52
90.66
-89.27
-548.23
-730.44
-602
-513.59
-304.05
-50.27
102.52
972.33
1662.88
352.06
-485.2
574.66
751.63
553.03
1015.34
924.8
969.13
1233.5
1133.36
1241.39
1437.36
1375.73
1366.16
1414.39
1346.08
1323.22
1133.7
1095.31
1642.45
1366.73
206.36
123.77
401.91
74.05
77.58
103.5
-48.38
-39.62
-138.25
-290.92
-368.78
-498.7
-681.58
-701.59
-641.28
-816.47
-455.33
549.8
-169.67
-1661.97
-1166.5
-760.19
-1220.56
-979.97
-954.06
-1078.78
-783.72
-818.5
-879.59
-805.25
-923.03
-947.28
-858.72
-836.06
-832.03
-232.06
873.22
178.59
-1647.31
-1402.66
-761.5
-1089.5
-848.84
-640.97
-751.87
-597.94
-543.78
-614.59
-574.66
-593.34
-668.84
-657.72
-538.66
-487
-197
774.88
702.66
-725.38
-466
450.56
-451.27
-800.75
-291.91
-499.97
-437.05
-201.03
-259.84
-184.14
-78.5
17.44
272.56
735.94
1100.36
871.95
1071.56
2092.23
1282.55
-819.63
-921.84
-193.05
-232.41
-156.62
-329.67
-728.74
-688.81
-734.46
-847.53
-807.44
-794.1
-720.01
-603.37
-568.3
-482.54
-294.34
-235.52
707.34
2233.46
877.84
-1398.22
-509.66
184.69
-276.2
301.78
168.92
-554.05
-343.5
24.77
39.84
78.31
-155.94
-536.72
-315.69
58.87
332.31
822.12
1152.16
1829.75
2746.63
1714
543.53
1463.06
1684.06
1327.34
1742.53
1666.78
1533.16
1692.84
1606.69
1604.94
1595.94
1440.09
1346.81
1212.69
1115.34
1089.13
857.97
855.66
1546.34
1355.25
193.69
234.92
657.23
349.17
326.19
393.95
253.43
294.9
215.16
78.53
60.69
-74.36
-238.8
-263.24
-258.31
-516.06
-397.86
368.85
-234.15
-1648.36
-1335.33
-1006.12
-1439
-1245.05
-1228.72
-1344.45
-1165.64
-1141.47
-1157.78
-1112.56
-1071.5
-1066.56
-1009.53
-863.44
-793.06
-123.03
1183.69
420.22
-1725.34
-1457.03
-673.88
-1094.34
-808.94
-539.19
-689.66
-523.59
-478.38
-559.19
-538.87
-499.12
-516.53
-491.81
-366.22
-297.06
231.25
1380.69
811.06
-1201.09
-1236.97
-515.38
-782.88
-619.81
-347.44
-445.5
-273.67
-168.17
-166.55
-76.11
-112.33
-119.8
-69.3
58.05
225.69
66.28
324.34
1624.57
1619.48
237.21
274.65
474.96
-91.55
-74.32
4.39
-90.64
-107.57
-413.36
-679.11
-695.43
-772.49
-807.37
-769.33
-666.27
-537.25
-458.32
284.66
1038.92
-302.72
-1402.07
-270.54
-49.45
-360.26
117.78
-4.78
-21.02
307.05
242.98
298.73
434.22
380.89
419.33
437.03
522.63
625.27
459.33
878.25
1326.44
-93.16
-978.89
187.72
363.69
144.34
666.81
568.47
523.16
761.09
653.09
650.94
691.19
566.75
475.78
319.5
259.47
256.91
359.72
1017.63
1085.72
-139.94
-413.81
443.97
497.78
498.78
648.16
285.59
297.44
586.36
560.22
656.45
810.47
710.58
761.11
904.22
889.81
1233.36
1896.14
1511.97
258.11
145.27
580.96
284.31
213.84
295.06
117.56
174.59
193.69
28.8
-25.99
-78.98
-232.17
-235.32
-177.77
-74.44
371.24
563.27
-135.69
-751.61
-602.92
-581.92
-730.94
-711.44
-811.11
-851.39
-757.39
-816.91
-902.31
-877.78
-950.16
-979.34
-931.34
-1078.91
-694.78
258.81
-546.81
-1926.59
-1229.38
-853.03
-1213.03
-813.22
-751.19
-836.09
-620.91
-672.37
-691.94
-594.94
-690.44
-728.91
-612.97
-548.34
-206.81
769.13
686.41
-1034.44
-1455.64
-617.7
-700.97
-727.72
-345.25
-414.3
-348.77
-149.27
-128.44
-47.92
5.61
51.88
92.48
77.26
102.03
195.02
158.37
768.08
1971.28
1014.52
-647.55
251.92
967.25
574.45
852.97
600.44
97.81
143.6
-10.31
-38.3
387
776.28
341.97
-669.85
-998.64
-825.84
-866.3
-761.69
-662.32
196.33
1757.13
360.12
-1926.5
-942.22
-301.67
-740.8
-43.91
94.84
-70.34
291.39
285.11
263.03
370.69
354.58
388.31
411.41
409.56
492.25
513.31
369.13
155.22
-163.25
-289.87
703.09
1895.63
498.66
-1029.19
80.94
335.78
-190.62
192.53
98.31
159.81
569.81
574.72
669.16
711.41
667.16
845.56
925.56
933.97
953.16
992.13
1100.72
1033.34
1286.06
2216.97
1950.41
345.91
149.97
784.16
681.87
736.59
848.81
710.87
846.86
882.48
702.39
731.25
699.11
552.39
452.34
348.64
338.69
376.2
87.03
96.51
939.01
578.5
-782.81
-644.68
-305.49
-728.52
-679.6
-718.44
-907.09
-788.59
-908.59
-998.27
-921.61
-938.83
-956.64
-994.02
-969.28
-914.19
-1045.03
-519.53
748.91
-150.38
-2070.78
-1366.91
-758.19
-1253.78
-808.94
-754
-975.88
-729.94
-774.47
-847.91
-751.16
-741.28
-728.38
-680.5
-648.09
-477.41
-383.13
280.84
1559.84
624.47
-1324.38
-752.34
-136.37
-601.22
-227.41
-140
-401.17
-167.66
-78.44
-116.36
-102.75
136.69
799.75
1049.3
565.72
300.41
208.19
-109.44
266.77
1069.19
-46.95
-1735.75
-1266.31
-928.44
-1312.61
-916.7
-825.95
-945.39
-637.48
-483.73
-410.34
-220.83
-169.75
-106.54
29.55
90.8
187.84
347.67
260.77
742.6
1790.36
397.2
-1441.64
-315.84
174.64
-378.01
257.52
357.64
223.64
661.53
488.73
206.91
362.77
437.19
487.7
559.69
464.22
385.02
286.06
-48.44
598.89
2057.12
1077.78
-652.5
347.81
942.27
508.89
1004.39
967.39
805.5
1169.89
1179.92
1188.28
1351.98
1256.48
1069.77
941.64
842.09
765.66
882.17
1495.7
1512.44
406.41
-101.48
184.28
43.79
-126.84
-74.66
-234.16
-256.76
-165.77
-220.65
-302.6
-302.81
-281.08
-383.84
-407.4
-352.02
-497.72
-140.6
851.36
210.3
-1394.03
-1062.44
-601.44
-1057.02
-856.08
-817.39
-1019.94
-849.75
-856.75
-926.34
-855.78
-873.5
-906.86
-793.25
-727.05
-827.39
-337.31
785.47
2.55
-1813.09
-1345.05
-748.23
-1116.48
-746.34
-563.7
-666.17
-413.03
-425.91
-524.53
-463.2
-531.75
-554.92
-521.8
-438.73
-325.7
-90.6
794.36
1022.86
-699.59
-1438.83
-363.2
-353.66
-431.58
150.5
45.24
44.69
326.37
259.02
268.79
394.95
352.98
365.34
383.22
405.78
529.91
451.86
872.02
2106.42
1786.19
340.39
549.19
849.94
436.98
505.55
403.25
148.89
96.48
49.25
89.64
111.7
59.53
95.06
-9.41
-209.37
-182.69
-113.16
-231.84
469.84
1740.48
380.28
-1557.22
-568.66
-88.64
-622.64
-94.67
-34.11
-190.42
197.58
252.14
278.52
441.45
426.05
275.67
-70.3
-351.19
-296.3
-175.77
-385.64
-591.06
200.27
1013.75
-241.47
-1069.38
213.56
428.59
79.59
568.59
524.78
452.69
721.44
698.44
792.91
989.84
1038.69
1113.44
1111.36
1154.86
1222.06
1127.97
1345.97
2098.48
2035.98
809.13
455.69
963.64
885.13
713.81
720.52
534.66
476.97
448.82
341.67
311.08
217.87
127.04
74.84
87.83
128.77
430.6
921.72
367.73
-898.28
-1177.56
-957.09
-1049.91
-1019.84
-1098.19
-1203.38
-1082.56
-1110.34
-1199.91
-1196.53
-1176.72
-1209.28
-1206.47
-1083.72
-1100.34
-505.97
728.25
-198.28
-2147.47
-1636.75
-993.62
-1387.28
-1041.38
-903.09
-1010.62
-771.72
-801.62
-805.94
-668.66
-684.56
-709.47
-629.75
-565.34
-543.34
99.87
849.59
-424.09
-1717.75
-728.88
-456.19
-858.66
-358.72
-329.5
-402.37
-154.87
-240.95
-313
-264.25
-332.23
-251.5
-97.61
-203.08
337.33
1561.06
601.95
-1270.41
-617.87
-81.02
-518.25
-109.41
-26.46
-163.56
130.02
119.49
98.57
232.49
176.98
224.91
266.05
246.49
342.64
284.52
822.06
2021.43
1187.14
-440.89
577.59
1473.73
846.03
875.89
992.14
747.83
678.41
474.86
245.63
318.3
303.17
32.88
-198.84
-308.05
-353.25
-338.37
-454.06
323.7
1765.84
206.38
-2031.52
-891.11
-333.69
-949.08
-277.75
-191.95
-412.62
52.13
135.31
177.59
405.22
443.03
519.84
613.63
578.28
624.47
767.16
741.16
1331.19
2351.72
1186.28
-941.91
-696.06
-28.66
-165.34
207.66
292.22
96
199.44
170.03
-123.16
-504.75
-618.81
-471.56
-358.81
-210.22
-14.06
166.16
389.87
751.37
1660.31
2144.81
832.56
69.56
952.66
1015
814.8
1136.59
956.59
903.64
1099.39
1031.23
1105.72
1248.86
1242.27
1253.26
1241.26
1221.7
984.01
885.43
1302.41
1056.69
346.2
480.42
537.05
187.76
189.21
-57.48
-325.23
-188.97
-266.17
-526.48
-695.06
-874.53
-1062.03
-1043.59
-921.59
-987.56
-831.16
-61.22
-174
-1211.56
-1092.5
-761.03
-1086.56
-1036.53
-1010.81
-1128.63
-1044.81
-1214.94
-1374.81
-1239.06
-1300.81
-1355.38
-1202.5
-1218.06
-767.81
319.69
-161.56
-1962.37
-2030.94
-1329.94
-1551.81
-1399.31
-1122.31
-1204.81
-1004.75
-908.38
-943.44
-859.31
-865.94
-893.19
-804.81
-711.12
-800.25
-273.72
947.81
48.19
-1760.25
-936.66
-363.28
-867.28
-329.69
-165.56
-304.69
-9.22
106.17
390.3
1313.83
2317.33
2261.94
1660.66
1661.45
1451.19
947.23
1049.44
1147.81
409.62
-364.91
-242.31
-104.14
-256.01
-173.59
-211.38
-286.82
142.59
725.05
611.56
152.33
73.43
-52.28
-341.59
-413.21
-491.97
-493.69
59.44
1022.33
786.4
-1034.83
-1601
-875.98
-1021.6
-1092.08
-765.8
-867.44
-737.12
-474.55
-508.89
-380.77
-209.06
-161.47
-89.44
-57.7
-9.78
169.5
280.77
516.03
1364.5
1505.13
98.12
-429.87
358.63
346.03
256.44
564.37
432.66
507.38
673.13
582.84
639.63
698.69
653.72
661.91
611.56
578.5
691.72
706.09
574.03
821.59
1064.69
-179.19
-1164.97
-239.66
113.06
-266.44
-118.09
-78.47
80.94
292.28
14.44
-161.37
-29.06
94.31
157.03
266.97
566.12
773.81
716.88
1364.75
2611.06
1891.94
323.69
880.38
1397.75
1033.72
1343.19
1345.69
1126.06
1249.38
1152.06
1120.38
1173.56
1021.28
856.25
809.03
775.19
575.25
488.97
979.03
972.95
102.89
44.94
334.06
45.02
-97.86
-201.22
-377.5
-351.46
-412.45
-522.27
-516.45
-603.91
-664.83
-669.45
-761.8
-581.17
212.9
341.59
-1048.11
-1715.91
-1085.52
-1031.61
-1117.06
-887.95
-970.86
-912.84
-773.84
-828.47
-799.81
-764.72
-822.78
-836.97
-753.12
-764.91
-290.72
834.47
380.09
-1473.94
-1528
-816.34
-1092.88
-983.5
-754.81
-865.47
-728.75
-668.91
-760.03
-732.69
-721.41
-716.62
-725.75
-733
-626.16
-753.91
-172.78
1217.44
144.44
-1751.91
-722.59
-138.02
-656.14
-9.31
287.3
591.88
833.34
-70.28
-453.3
-164.3
-286.16
-259.77
-100.23
-220.13
-171.14
-37.21
58.46
834.05
1792.7
946.37
-408.06
25.09
317.8
-119.97
22.35
16.97
-205.82
-153.27
-223.87
-289.49
-189.95
-58.16
161.67
258
272.1
247.27
99.99
80.18
169.95
1.16
510.07
1660.54
266.24
-1754.65
-772.26
-231.7
-766.94
-125.34
103.7
-125.87
21.2
-30.02
-159.48
-391.67
-465.97
-134.08
35.39
122.37
444.91
700.28
745.69
1443.97
2659.69
1909.03
34.84
277.28
918.22
644.72
891.25
970.53
832.47
1061.25
1122.28
1091.47
1185.56
1137.59
1005.09
915.73
877.97
960.61
930.09
1150.56
1771.39
1410.14
254.08
139.45
417.63
161.3
139.22
115.46
-57.42
7
-26.8
-129.45
-52.57
-19.87
-70.52
-190.16
-275.69
-180.42
-201.59
46.52
648.17
150.03
-841.03
-564.09
-354.03
-752.72
-743.91
-843.8
-971
-901.97
-968.91
-985.25
-972.38
-1036.16
-1023.09
-969.34
-985.28
-730.06
77.56
111.16
-1340.75
-1863.09
-1129.69
-1142.66
-1197.69
-872.66
-928.22
-826.13
-629.72
-691.38
-626.44
-580.81
-612.47
-542.37
-464.25
-505.81
188.22
1512.53
490.12
-1632.78
-1145.31
-455.59
-908.36
-570.48
-355.16
-503.91
-309.05
-295.41
-319.84
-245.63
-229.4
-173.84
-90.71
5.9
145.68
119.48
737.7
1704.78
286.27
-1184.87
-23.73
250.24
-202.37
333.94
167.42
-18.07
580.96
1050.31
1077.89
777.52
608.34
406.46
154.64
319.99
565.27
202.05
359.56
1464.13
117.16
-1981.69
-1020.91
-547.13
-1098.19
-495.42
-510.72
-705.16
-272.48
-259.06
-182.98
25.05
9.59
110.69
195.56
217.22
361.81
381.22
1087.75
2359.78
1023.03
-988.38
-51.41
463.41
-72.81
449.66
488.22
224.5
515.12
501.19
440.19
555.31
530.94
515.91
505.59
456.19
493.66
487.34
915.62
1898.97
1259.81
-404.81
-216.53
408.38
191.72
366.75
523.03
337.75
443.53
501.03
406.37
451.5
465.5
350.19
277.84
365.44
405.87
307.56
879.91
1789.41
576.34
-925.69
-5.5
294.31
-227.72
195
88.61
-104.09
186.67
20.09
-257.37
-424.19
-414.81
-180.12
-98.5
-62.86
-152.35
342.45
1489.68
502.07
-1077.71