-252.02
-219.22
-226.35
-227.4
-319.53
-264.76
1190.67
-278.3
-363.34
-307.48
-367.7
-393.38
-357.65
-354.76
-389.38
-416.91
-373.88
-446.04
-389.58
-469.82
-416.2
-477.34
-451.96
-440
-469.49
-518.84
-469.03
-434.06
-457.55
-463.3
-500.91
-514.93
-538.25
-506.73
-515.03
-474.66
-521.56
-547.19
-509.71
-520.79
-526.81
-486.52
-498.38
-470.56
-472.58
-456.88
-463.51
-446.16
-469.65
-489.44
-450.14
-423.3
-440.61
-452.13
-390.32
-390.46
-375.53
-381.17
-392.33
-340.36
-343.1
-321.19
-382.77
-369.42
-295.93
-322.58
-293.83
-321.94
-294.38
-276.38
-309.47
-251.01
-248.02
-197.41
-186.59
-241.65
-156.07
-145.95
-125.68
-157.41
-94.99
-86.66
-102.09
-38.76
-108.34
-69.03
-51.41
-55.49
-46.46
21.73
32.78
-4.55
92.74
65.02
38.2
104.33
124.71
151.43
114.56
122.49
150.15
176.08
158.09
206.29
217.71
258.27
273.39
273.98
226.65
274.29
307.23
285.01
348.68
335.03
325.9
365.25
345.3
409.74
434.32
400.88
450.82
427.22
428.96
455.79
481.71
454.69
498.15
408.84
457.11
509.73
427.68
434.89
476.55
493.74
446.38
466.42
483.09
497.64
449.28
510.99
454.3
495.6
541.32
529.29
539.92
526.8
486.04
464.17
521.36
445.23
530.42
479.5
497.49
490.1
487.47
422.38
428.58
466.44
440.78
390.34
465.34
396.5
360.92
435.71
414.02
400.31
402.41
302.68
293.04
355.16
278.31
265.5
1755.64
292.16
310.08
235.1
221.87
204.92
184.04
216.86
153.3
200.89
205.41
168.61
137.87
116.07
104.52
111.09
118.83
70.04
15.21
44.66
-8.18
35.22
-32.61
-3.37
-60.19
-37.2
-57.18
-136.27
-70.91
-91.14
-122.74
-176.43
-165.56
-200.91
-183.11
-237.58
-187.71
-242.21
-281.09
-266.95
-255.29
-329.06
-293.88
-262.18
-337.77
-286.94
-326.41
-346.54
-348.02
-411.55
-391.28
-428.12
-362.49
-387.51
-409.62
-426.34
-423.45
-452.59
-486.54
-468.71
-444.72
-501.73
-443.59
-444.44
-490.17
-527.33
-461.22
-467.97
-521.2
-486.32
-544.56
-523.44
-531.83
-514.82
-545.09
-501.02
-531.15
-465.89
-464.07
-480.96
-474.06
-492.42
-515.1
-461.74
-447.07
-434.02
-474.45
-431.14
-475.71
-472.44
-417.43
-469.2
-385.53
-409.4
-357.41
-410.89
-364.71
-344.13
-349.73
-317.48
-370.55
-304.21
-338.35
-260.01
-345.04
-263.56
-305.5
-221.06
-223.25
-185.99
-191.42
-182.65
-154.6
-137.57
-189.83
-109.43
-166.39
-123.97
-131.25
-49.87
-123.41
-85.71
-35.96
10.27
-40.17
-36.1
-6.11
63.43
90.72
92.59
65.06
105.58
79.11
165.9
172.72
133.46
185.07
163.04
162
206.79
186.28
204.88
222.02
231.98
314.27
234.92
307.96
271.79
329.32
343.86
361.8
381.84
317.33
338.92
420.19
379.58
383.74
439.44
421.33
379.9
412.79
451.06
473.63
453.3
433.54
429.92
505.68
1932.05
476.69
491.32
490.37
474.71
453.96
500.66
541.53
545
488.38
456.41
521.44
521.64
472.4
449.59
446.28
536.63
538.57
535.63
505.49
524.67
501.62
456.26
474.42
475.36
402.04
396.22
477.96
406.22
423.88
412.9
403.55
362.71
418.3
393.21
403.07
360.62
367.75
359.52
325.21
271.13
332.7
290.03
315.59
263.06
256.59
256.03
205.13
173.2
143.47
163.65
171.24
195.5
176.73
85.5
135.32
94
103.63
100.67
29.46
16.07
-4.66
40.5
-30.74
6.65
-85.31
-21.95
-25.04
-115.2
-108.03
-110.5
-117.19
-142.29
-122.29
-218.52
-144.2
-237.62
-238.15
-234.15
-248.8
-245.43
-283.12
-331.45
-311.22
-326.81
-341.8
-345.39
-360.23
-332.18
-317.28
-377.71
-404.26
-423.13
-402.2
-385.49
-445.28
-425.94
-468.78
-477.05
-439.07
-492.82
-474.54
-452.52
-434.97
-523.03
-477.58
-453.61
-532.74
-495.97
-486.41
-446.87
-531.33
-517.28
-472.23
-502.66
-494.46
-522.63
-531.83
-544.16
-504.57
-471.25
-452.02
-445.17
-484.92
-467.93
-512.48
-473.62
-453.42
-424.48
-425.95
-399.74
-478.15
-476.6
-451.79
-367.27
-426.89
-393.13
-347.81
-424.66
-343.98
-342.78
-310.23
-341.68
-357.72
-264.03
-261.25
-237.89
-313.7
-290.37
-261.13
-197.5
-267.72
-177.13
-200.81
-135.1
-205.04
-153.77
-117.09
-107.89
-81.1
-66.96
-54.25
-110.38
-40.82
-33.08
23.06
36.93
1462.15
34.41
33.8
45.62
28.5
49.58
104.68
85.35
108.92
177.45
191.69
164.86
228.24
188.94
217.93
260.66
274.68
218.12
293.71
308.33
259.71
310.71
324.16
305.66
324.28
337.72
318.15
376.81
340.63
415.54
385.66
411.52
386.75
427.25
409.4
463.24
400.73
487.08
504.42
473.46
432.73
437.66
453.34
491.91
470.27
537.79
517.32
478.71
485.12
470.54
467
503
460.71
546.18
513.04
450.03
537.93
491.63
480.52
440.78
508.15
437.43
427.45
447.17
433.19
495.64
499.33
453.72
450.79
417.14
441.49
418.47
452.82
400.15
414.52
404.95
416.7
403.15
358.19
336.4
335.18
355.97
296.44
338.96
309.52
237.47
239.34
229.3
249.74
206.77
160.87
226.49
197.52
121.34
170.09
125.76
154.97
142.61
98.53
109.3
31.46
71.57
13.4
-18.89
37.96
-62.69
-62.47
-3.58
-89.28
-54.89
-126.58
-149.92
-93.64
-128.94
-204.61
-172.43
-187.49
-232.38
-245.32
-270.14
-222.52
-216.12
-258.83
-293.11
-306.74
-269.31
-310.1
-339.6
-345.55
-346.67
-316.97
-390.31
-347.18
-420.5
-373.15
-433.31
-393.35
-386.12
-462.79
-397
-411.32
-412.85
-412.91
-418.85
-471.33
-494.57
-513.52
-494.87
-478.96
-442.27
-468.97
-471.05
-534.57
-471.04
-505.8
-483.71
-474.7
-535.76
-530.68
-513.65
-471.18
-488.41
-483.62
-482.88
-507.87
-492.67
1004.39
-455.59
-471.61
-509.21
-474
-487.32
-449.68
-407.92
-397.37
-466.59
-374.38
-408
-365.54
-364.2
-342.84
-327.71
-327.7
-329.25
-307.38
-271.24
-286.87
-300.78
-313.11
-224.16
-229.1
-200.79
-238.09
-173.68
-166.28
-168.68
-206.07
-117.46
-129.89
-82.78
-83.85
-74.04
-122.93
-57.45
-57.25
-34.87
-11.63
29.37
45.74
37.73
20.93
20.66
49.34
107.51
74.19
73.41
106.07
127.96
183.89
136.68
225.78
148.99
246.88
237.58
236.4
219.04
276.54
282.8
268.72
291.45
349.28
312.3
321.89
345.75
310.36
370.13
356.98
370.44
442.74
454.55
423.17
420.16
418.34
463.91
438.12
446.2
450.64
471.21
426.08
451.43
486.08
509.55
452.03
525.01
515.59
514.11
540.07
510.97
530.52
470.58
521.43
543.89
523.41
483.66
507.05
513.92
449.22
522.33
467.55
459.96
494.72
500.18
474.83
462.2
417.66
441.83
397.93
457.18
455.25
446.49
399.03
374.17
410.04
390.08
421.27
408.38
369.81
314.57
310.13
294.56
301.85
334.64
308.74
277.59
298.36
210.16
241.02
172.43
224.71
197.55
165.05
133.32
112.82
179.78
104.67
86.26
47.23
69.74
80.1
8.57
9.61
-21.12
36.12
-66.28
-80.71
-42.51
-92.39
-94.6
-63.72
-88.16
-104.01
-100.51
-193.9
-179.41
-187.08
-217.22
-212.69
-181.44
-270.14
-279.12
-229.65
-279.73
-275.94
1235.3
-349.56
-304.43
-327.29
-367.69
-308.35
-341.27
-367.98
-363.02
-401.59
-368.69
-386.65
-374.66
-381.6
-478.44
-479.49
-459.56
-423.8
-498.17
-491.22
-517.9
-463.47
-493.71
-470.71
-449.96
-510.54
-475.18
-526.13
-449.85
-474.39
-480.87
-508.59
-533.22
-473.89
-479.98
-526.38
-449.43
-477.67
-537.76
-505.76
-482.61
-517.93
-497.67
-459.19
-469.61
-461.28
-401.39
-441.64
-445.51
-403.63
-411.65
-371.63
-416.3
-383.53
-433.53
-372.39
-340.75
-327.55
-294.81
-318.71
-274.88
-264.92
-339.29
-286.48
-320.31
-294.45
-259.56
-205.34
-260.5
-173.13
-222.71
-141.74
-122.14
-120.1
-114.01
-105.4
-89.97
-85
-52
-90.12
-81.15
-34.82
-44.09
-13.66
60.1
24.72
14.84
107.35
102.66
137.8
106.28
83.86
134.34
142.8
159.63
226.32
205.78
196.19
180.11
202.91
240.85
229.88
280.37
252.47
303.21
292.71
288.19
353.22
330.15
324.78
395.6
383.99
389.12
419.4
441.51
385.89
390.23
385.29
484.52
468.82
436.11
415.56
446.15
455.89
428.95
471.21
449.19
461.24
514.27
464.48
521.43
472.99
497.93
533.16
526.73
540.34
530.57
514.69
457.5
473.19
492.05
478.35
445.18
446.16
447.83
434.15
437.82
496.69
417.36
492.1
499.95
418.31
481.04
475.6
384.33
403.59
376.61
359.88
386.34
397.49
329.68
357.29
304.7
339.55
299.43
282.76
328.48
1744.73
268.16
229.74
229.46
232.51
243.03
256.89
218.73
141.5
170.74
144.4
93.89
110.34
84.99
96.73
124.51
78.91
81.25
14.85
33.11
-10.72
-15.21
-22.28
-90.06
-105.89
-102.83
-118.24
-140.71
-74.31
-106.69
-165.13
-177.36
-152.64
-195.64
-173.73
-248.04
-276.26
-277.15
-230.04
-299.73
-321.69
-286
-292.02
-271.44
-378.78
-330.11
-358.32
-359.38
-365.07
-399.3
-412.06
-357.57
-455.8
-383.6
-412.02
-455.41
-404.5
-461.2
-458.63
-465.43
-422.19
-431.17
-434.03
-489.79
-458.28
-488.66
-441.57
-510.02
-499.37
-518.28
-529.1
-542.44
-450.11
-455.94
-536.19
-485.98
-472.85
-504.02
-488.69
-504.13
-447.07
-499.15
-437.49
-440.92
-470.52
-451.54
-408.55
-407.12
-433.34
-405.26
-428.78
-418.1
-441.81
-372.61
-445.93
-431.38
-382
-408.47
-313.45
-356.36
-315.37
-327.97
-344.68
-252.03
-269.5
-225.62
-271.59
-224.13
-202.4
-228.56
-189.39
-242.83
-147.9
-196.61
-163.49
-153.64
-167.22
-155.87
-82.6
-120.19
-33.8
-40.32
-66
-3.22
14.25
42.79
40.08
36.72
86.58
38.08
95.12
109.06
151.3
150.09
138.56
180.57
186.86
225.54
239.01
228.96
225.92
192.15
252.49
275.41
295.38
262.65
319.61
358.24
363.59
370.04
398.97
324.06
394.48
408.09
396.73
356.82
411.64
409.31
451.58
390.94
478.08
482.68
446.53
498.32
461.45
439.8
505.48
435.25
453.23
490.24
517.94
525.06
460.23
476.24
481.94
496.9
472.81
540.15
539.21
496.92
513.74
518.93
485.37
461.02
444.44
499.89
446.41
494.9
432
468.61
495.96
431.8
418.06
408.56
390.63
400.64
433.08
376.81
442.57
399.24
428.05
370.61
360.82
308.91
328.35
335.34
271.08
301.53
299.35
319.38
296.1
270.83
284.92
221.63
240.93
169.27
148.3
214.2
137.68
128.09
125.4
93.35
96.36
111.32
111.03
15.1
69.17
21.28
-10.16
31.89
-29.58
7.5
-43.49
-43.03
-59.48
-98.79
-148.81
-94.54
-115.76
-169.79
-176.48
-210.76
-154.23
-199.67
-175.83
-257.3
-216.05
-219.12
-240.83
-323.07
-281.96
-267.49
-320.34
-327.98
-360.4
-358.35
-406.07
-344.05
-378.27
-412.02
-387.88
-429.28
-378.02
-472.21
-414.17
-484.87
-421.24
-487.72
-484.28
-465.09
-427.43
-475.81
-481.12
-482.22
-469.2
-540.96
-524.75
-502.36
-478.76
-472.88
-505.33
-485.64
-539.03
-509.81
-512.14
-446.03
-517.9
-488.93
-463.15
-507.35
-454.38
-454.65
-444.9
-482.8
-467.07
-502.06
-422.06
-404.04
-444.03
-433.29
-399.41
-433.06
-378.33
-397.79
-425.38
-347.02
-379.1
-331.42
-341.1
-319.78
-345.19
-292.45
-311.66
-321.86
-264.59
-233.06
-207.4
-193.37
-195.18
-211.27
-185.04
-219.45
-180.83
-190.76
-137.45
-118.03
-56.33
-61.98
-62.96
-98.93
-44.63
-14.33
-28.69
1480.47
58.85
-5.25
2.97
64.84
95.02
46.58
103.38
155.35
89.53
117.97
201.38
175.85
171.87
247.7
197.88
218.91
267.15
283.76
313.82
303.25
331.33
336.09
276.58
373.82
297.79
366.83
411.38
371.89
429.9
369.89
439.84
401.74
460.82
442.71
462.47
441.44
453.4
497.33
438.86
449.27
441.6
459.54
456.44
449.16
498.49
533.21
515.09
511.47
519.36
478.99
487.95
546.54
520.1
490.42
467.64
461.39
448.6
505.23
464.43
438.24
502.2
496.24
450
458
480
423.21
417.37
409.89
462.7
392.23
425.3
432.51
412.01
438.54
432.03
343.2
352.33
386.58
367.15
372.19
273.24
330.21
255.7
272.92
318.49
265.98
287.02
267.99
203.52
247.83
213.53
145.5
130.25
170.82
113.26
102.92
61.19
67.97
77.18
26.57
79.57
22.18
-8.19
13.82
15.97
-59.4
-88.8
-56.06
-85.08
-47.48
-91.87
-91.39
-185.26
-172.85
-152.14
-176.96
-194.39
-202.22
-172.25
-222.63
-239.71
-237.83
-302.68
-285.84
-277.61
-318.87
-366.12
-337.42
-303.35
-307.8
-366.9
-392.22
-366.88
-378.33
-443.32
-393.16
-395.28
-462.77
-472.02
-398.29
-419.42
-411.75
-502.44
-477.09
-515.93
-526.24
-526.83
-492.52
-524.13
-461.86
-502.58
-486.27
-494.77
-483.41
-487.54
-498.44
-508.44
-496.1
-541.12
-467.07
-542.04
-508.76
-474.12
-493.66
-526.27
-435.67
1043.63
-424
-423.03
-441.45
-406.73
-427.76
-417.01
-435.42
-406.54
-433.91
-446.13
-388.42
-338.73
-409.74
-400.14
-303.43
-303.55
-330.26
-304.76
-306.11
-252.59
-305.22
-248.44
-304.82
-212.19
-195.25
-199.33
-219.65
-211.16
-182.91
-200.47
-178.9
-84.82
-160.87
-134.61
-107.87
-115.11
-52.34
-63.89
3.45
-24.68
-33.64
53.69
66.25
-3.94
21.26
99.85
66.56
92.15
152.37
109.63
140.36
182.76
194.35
208.44
237.41
227.57
278.62
242.75
258.72
284.64
299.46
272.1
310.37
313.76
283.12
370.56
304.68
383.1
420.64
411.12
428.14
437.67
378.09
391.85
437.45
479.27
468.46
465.66
444.35
436.59
476.58
427.26
453.58
514.21
480.12
515.15
491.48
501.55
456.01
458.89
456.22
519.17
478.41
490.75
516.9
540.61
512.9
448.15
484.5
520.2
466.14
433.14
435.16
477.04
446.9
483.91
417.65
490.28
395.45
469.33
464.79
459.52
449.71
397.64
400.66
352.79
389.62
343.51
356.6
331.16
346.11
275.5
336.19
265.89
286.81
288.86
237.85
274.89
200.08
268.93
257.17
213.89
183.25
134.12
124.77
169.88
129.53
93.4
109.61
52.91
39.15
96.76
66.55
-9.43
39.15
-58.46
-70.55
0.85
-58.61
-102.8
-81.18
-137.2
-156.7
-168.06
-140.81
-134.18
-168.16
-167.64
-187.67
-233.44
-245.45
-214.05
-227.25
-311.38
-293.39
-286.23
-260.07
-288.03
-338.41
-358.6
-363.87
-391.3
-391.16
-364.66
-385.26
-378.06
-400.72
-416.22
-417.44
-397.88
-471.26
-453.49
-489.74
-419.03
-420.91
-490.62
-477.07
-507.35
-446.54
-489.49
-443.85
-534.88
-541.67
-465.93
-482.42
-532.37
-526.67
-480.14
-490.45
-516.48
-510.38
-494.53
-498.38
-495.08
-440.69
-460.35
-485.34
-506.13
-427.74
-505.64
-445.17
-413.04
-481.17
-476.81
-465.88
-410.43
-425.59
-452.76
-420.68
-374.16
-415.1
-390.19
-349.49
-361.42
-297.37
-285.11
-337.76
-313.08
-311.14
-301.44
-299.55
-280.71
-251.26
-210.3
-161.97
-243.04
-212.71
-215.1
-113.24
-171.72
-94.96
-101.55
-88.95
-77.95
-104.63
-93.56
4.16
-58.93
16.59
11.04
7.62
20.05
18.99
22.59
83.43
127.55
122.84
137.26
135.34
203.29
127.84
217.05
248.9
242.39
228.06
224.36
279.85
240.23
321.81
253.64
350.98
306.79
301.43
379
385.6
398.08
380.97
336.64
386.7
415.2
394.76
399.35
375.67
449.68
405.55
423.21
466.71
503.73
490.28
474.91
520.75
466.2
492.31
460.92
508.18
474.84
488.88
499.08
512.63
504.63
529.62
513.84
509.87
503.29
488.42
482.06
470.19
532.56
534.87
438.82
456.31
507.8
502.03
503.02
492.19
433.95
414.34
449.03
395.63
406.26
381.17
368.59
425.85
376.74
394.16
320.55
357.68
393.28
291.59
314.23
352.04
285.75
1828.13
289.96
305.48
231.9
244.25
208.02
242.61
236.62
191.85
138.8
126.27
164.37
133.12
157.94
64.97
112.86
73.15
67.66
33.74
-20.59
-12.37
-29.2
1.95
-77.61
-31.98
-71.07
-96.11
-64.25
-99.64
-151.6
-156.93
-115.06
-201.79
-213.51
-234.49
-232.12
-185.63
-282.86
-212.5
-255.87
-258.75
-245.95
-307.45
-331.89
-362.48
-331.51
-391.13
-334.5
-403.86
-421.48
-432.3
-384.58
-418.23
-406.37
-449.1
-409.55
-406.7
-397.84
-432.11
-497.49
-440.67
-439.08
-439.36
-498.69
-527.01
-505.86
-514.14
-476.87
-530.11
-508.8
-477.14
-479.29
-543.02
-523.95
-450.87
-529.63
-468.8
-474.72
-482.34
-495.95
-501.99
-448
-496.66
-525.06
-520.59
-468.96
-461.83
-488.83
-410.95
-403.39
-467.92
-446.57
-367.5
-438.95
-402.43
-366.55
-410.87
-343.15
-329.18
-362.57
-326.01
-368.24
-328.64
-341.11
-273.24
-311.49
-291.59
-277.13
-218.51
-263.37
-243.83
-199.65
-141.88
-219.44
-166.92
-157
-118.35
-106.46
-98.32
-118.78
-91.97
-21.11
-79.5
-25.87
-20.46
-4.73
-7.72
19.98
22.78
60.09
75.37
68.29
146
82.22
114.11
157.42
148.65
158.88
181.48
162.82
229.23
273.68
257.34
286.41
291.99
304.62
329.09
344.77
308.91
384.11
315.49
341.91
384.39
328.48
431.33
360.13
440.55
419.74
424.74
405.83
456.69
462.65
486.28
433.85
494.64
511.12
500.73
1981.88
456.39
456.42
526.86
508.71
450.46
535.86
527.8
516.91
519.95
537.2
468.82
539.12
541.3
471.89
499.74
503.94
453.86
526.65
491.58
518.23
434.92
418.79
509.31
432.68
493.54
425.28
426.69
378.8
409.02
436.91
409.39
438.1
409.82
403.21
361.71
362.41
312.43
329.04
354.73
271.88
278.64
305.82
229.26
221.28
286.4
189.58
213.2
235.09
151.88
124.81
174.4
148.77
174.13
127.84
133.14
71.08
67.62
29.67
60.75
47.19
-4.18
-29.65
-28.74
-72.37
-10.84
-73.72
-44.18
-102.58
-101.13
-149.89
-163.25
-132.89
-202.16
-141.01
-158.15
-201.78
-256.03
-230.2
-246.44
-293.96
-313.64
-253.61
-269.05
-315.93
-271.62
-306.23
-356.49
-326.68
-353.45
-343.39
-343.2
-400.54
-379.39
-436.38
-371.98
-446.42
-459.48
-443
-413.14
-493.96
-452.16
-421.68
-456.52
-492.5
-436.84
-440.05
-444.14
-508.02
-517.65
-518.8
-496.37
-472.16
-540.25
-529.24
-450.52
-513.74
-541.47
-531.49
-521.72
-447.75
-458.25
-441.04
-465.4
-433.46
-431.97
-451.13
-470.71
-445.39
-476.21
-470.44
-412.19
-427.15
-464.17
-458.75
-423.73
-400.9
-374.65
-378.23
-344.33
-308.5
-378.71
-338.03
-367.23
-261.73
-310.5
-298.94
-226.1
-278.23
-236.4
-249.86
-191.65
-232.02
-176.36
-162.7
-206.28
-173.41
-130.93
-70.78
-127.95
-72.21
-111.62
-39.74
-65.73
13
-5.73
-28.03
-32.05
17.12
45.77
11.86
46.66
99.29
115.51
79.22
154.17
165.07
176.8
214.88
160.59
159.69
214.96
267.28
281.23
227.29
307.99
276.95
319.78
351.13
332.24
350.74
387.22
365.13
315.64
330.74
360.48
361.65
450.06
415.03
454.97
397.47
407.54
474.13
489.51
419.31
474.71
436.85
455.89
457.84
529.76
510.38
462.57
507.88
463.99
497.14
514.08
507.24
543.26
471.49
473.77
542.16
503.67
467.01
535.11
515.28
530.86
505.12
479.88
525.86
454
502.58
424.36
411.45
417.68
402.68
456.49
386.93
411.92
448.86
417.69
381.86
335.66
394.58
410.96
311.85
332.42
357.19
275.24
302.46
329.94
309.74
299.93
280.53
282.87
210.83
268.44
211.48
167.47
189.31
146.35
188.62
178.66
162.92
92.69
102.52
109.57
48.66
82.64
78.9
-31.19
28.44
-2.1
-50.52
-16.48
-93.26
-100.49
-64.76
-136.22
-141.57
-175.58
-152.55
-157.88
-162.88
-164.18
-157.09
-209.87
-257.21
-217.52
-295.24
-229.64
-280.52
-270.92
-304.66
-295.04
-282.69
-359.63
-354.2
-330.61
-338.2
-373.07
-352.3
-371.38
-454.63
-415.96
-402.98
-418.78
-486.46
-403.81
-431.28
-431.38
-513.04
-492.89
-427.6
-477.95
-520.84
-463.41
-492.82
-493.24
-450.67
-524.83
-452.21
-534.91
-530.71
-500.81
-456.17
-472.96
-507.37
-510.11
-459.25
-477.01
-532.14
-502.72
-458.73
1010.11
-481.46
-486.3
-420.35
-444.46
-425.09
-451.43
-472.15
-378.1
-453.4
-390.49
-364.61
-374.17
-426.83
-380.15
-338.45
-366.79
-374.66
-297.94
-306.82
-293.12
-286.58
-227.53
-299.49
-269.57
-223.59
-190.65
-168.32
-150.36
-223.98
-162.67
-148.6
-120.07
-148.5
-75.57
-117.88
-118.86
-73.1
-78.35
-39.68
-37.96
-28.9
50.54
37.17
68.74
46.21
114.3
73.01
121.14
109.61
144.23
190.61
204.18
187.16
188.92
179.58
240.55
238.36
243.16
222.59
306.42
246.95
252.4
297.53
273.04
351.74
339.15
363.52
332.36
390.72
376.04
384.05
390.03
411.01
425.8
403.8
478.53
421.95
431.23
420.04
497.59
435.83
443.58
517.89
515.4
530.47
462.31
456.8
474.76
460.49
469.08
510.06
462.81
495.46
525.84
532.62
507.18
447.82
462.68
494.42
537.24
491.8
519.45
470.96
475.9
434.98
434.2
467.24
501.8
492.25
470.05
385.47
426.67
444.44
384.99
395.66
406.57
329.65
399.15
361.45
349.23
334.32
282.31
290.94
328.85
295.04
263.15
261.33
261.77
258.98
222.98
170.94
221.04
187.13
160.12
141.93
127.55
116.46
81.07
139.4
118.96
65.98
56.06
15.32
63.23
5.69
6.19
-70.07
-87.09
-58.65
-111.86
-40.62
-123.84
-110.04
-130.3
-139.23
-165.97
-150.13
-180.89
-241.1
-196.29
-190.33
-242.51
-240.03
-232.06
-263.13
-313.88
1178.97
-362.99
-295.06
-384.6
-339.55
-323.31
-337.8
-334.07
-368.76
-376.94
-426.32
-447.66
-380.03
-419.87
-488.37
-491
-442.32
-474.59
-438.4
-428.53
-430.13
-481.57
-526.19
-452.83
-500.81
-515.6
-526.09
-537.58
-454.98
-455.56
-542.99
-453.83
-516.16
-477.6
-505.58
-526.21
-482.52
-492.47
-531.14
-500.64
-480.07
-513.92
-441.34
-463.16
-471.97
-489.83
-433.08
-447.39
-452.29
-446.37
-408.95
-365.12
-388.35
-368.8
-374.21
-326.33
-383.27
-329.19
-373.19
-306.23
-336.64
-352.74
-299.02
-305.84
-257.94
-295.93
-192.81
-256.48
-180.45
-239.73
-223.22
-218.39
-163.62
-123.33
-124.45
-157.89
-142.72
-59.07
-85.42
-73.59
-29.07
-36.11
8.9
27.38
25.68
-5.59
38.75
83.39
121.24
127.63
106.12
109.25
108.74
145.33
163.28
143.9
233.3
225.45
220.52
239.98
264.33
237.68
279.09
261.22
313.72
269.57
278.08
324.31
393.95
384.16
396.3
379.68
382.06
399
425.99
405
462.49
463.45
475.34
484.77
443.07
448.79
426.72
461.18
488.48
508.24
527.43
441.2
457.53
516.28
525.95
525.08
521.97
513.13
485.44
514.64
502.3
520.49
544.03
535.95
523.58
532.21
534.01
490.78
494.91
491.21
514.01
422.14
486.57
489.08
414.55
481.28
408.53
396.03
425.54
388.6
356.97
413.99
358.42
334.98
322.54
360.63
291.56
348.74
356.84
334.99
326.26
239.6
237.62
222.47
235.83
218.43
233.41
232.97
208.33
198.97
198.18
191.82
153.97
99.51
109.7
60.6
81.27
83.67
31.14
-16.94
-10.47
-22.33
21.82
11.94
-2.58
-52.89
-107.77
-61.26
-85.62
-139
-90.51
-163.36
-181.01
-143.58
-234.7
-174.21
-246.35
-258.33
-210.2
-235.01
-280.43
-306.68
-288.65
-265.65
-349.68
-327.8
-296.29
-357.37
-330.36
-350.36
-337.46
-384.36
-406.65
-408.68
-408.85
-399.44
-460.92
-401.41
-494.61
-450.32
-480.52
-472.68
-453.37
-525.05
-529.18
-518.61
-493.21
-473.42
-513.48
-486.99
-517.11
-460.82
-479.44
-458.37
-522.44
-542.5
-478.97
-478.14
-508.9
-478.7
-535.08
-440.78
-499
-466.9
-470.23
-471.15
-477.63
-472.8
-426.05
-486.66
-464.55
-429.2
-419.82
-438.76
-404.07
-359.63
-342.39
-406.84
-398.73
-395.12
-375.51
-345.11
-296.39
-276.93
-265.13
-328.02
-249.4
-247.82
-248.81
-202.22
-215.41
-220.8
-229.74
-127.62
-127.15
-128.37
-163.27
-151.62
-74.77
-110.34
-60.84
-11.59
-24.03
1.9
-61.39
-18.5
-1.87
29.56
59.4
89.14
74.21
83.82
64.33
91.25
177.14
101.44
187.86
184.7
232.39
198.05
232.85
246.82
269.2
264.3
275.2
236.23
316.86
346.37
297.13
311.14
330.73
395.54
364.17
379.74
368.14
431.47
367.07
367.43
440.45
433.71
458.08
461.28
424.25
474.96
433.28
451.34
442.77
1937.9
477.41
472.44
464.41
517.24
452.71
503.67
543.21
533.68
499.97
494.74
476.92
473.33
455.69
452.24
544.41
449.97
532.16
525.03
500.69
438.73
490.33
458.34
492.69
450.83
406.63
437.11
395.01
439.18
395.77
412.92
430.93
414.97
358.17
338.19
349.26
377.6
337.42
336.17
352.61
289.85
335.78
266.96
317.64
290.73
277.19
276.26
229.42
249.96
228.57
173.1
166.72
136.64
149.61
92.16
68.97
108.48
53.74
68.66
46.26
53.28
28.3
-10.63
14.09
-35.49
-3.48
-83.66
-46.71
-98.59
-138.32
-114.2
-153.25
-182.6
-151.22
-217.02
-219.38
-219.71
-260.25
-225.77
-222.27
-286.68
-305.24
-312.25
-244.23
-316.5
-291.77
-325.31
-312.83
-398.71
-363.97
-327.42
-348.83
-388.31
-450.35
-453.97
-403.06
-440.74
-449.19
-485.01
-479.46
-422.68
-460.19
-420.22
-494.22
-468.41
-462.64
-531.9
-512.42
-523.6
-465.18
-460.3
-482.57
-510.67
-533.86
-520.79
-486.85
-493.09
-460.08
-514.34
-493.65
-445.38
-490.58
-477.26
-508.67
-463.84
-453.99
-445.65
-505.86
-467.01
-405.39
-405.87
-407.98
-468.5
-441.42
-406.89
-398.23
-373.14
-411.07
-371.74
-383
-369.61
-375.2
-314.53
-352.99
-351.42
-302.48
-330.56
-251.25
-280.26
-286.23
-218.35
-208.51
-226.39
-227.48
-226.04
-190.35
-192.47
-139.86
-163.95
-81.54
-127.55
-98.95
-87.57
-69.86
-53.89
-63.33
-53.39
1548.4
64.75
29.38
13.24
106.1
123.89
134.58
136.8
80.54
177.55
187.77
188.92
144.65
151.63
211.12
210.2
211.28
226.97
290.7
280.36
254.69
281.05
286.3
291.15
306.44
387.76
386.62
338.79
342.6
394.55
417.68
432.96
388.62
418.01
473.29
398.42
452.1
405.84
446.54
490.04
485.31
460.75
472.04
485.27
481.69
521.53
483.94
475.47
450.89
495.02
462.38
521.69
512.73
525.82
524.51
471.24
479.46
472.36
533.15
480.03
508.38
481.69
497
500.62
416.31
465.57
491.42
426.39
459.91
403.22
405.6
451.06
431.39
439.88
412.14
329.03
341.72
324.15
305.5
345.08
358.01
302.8
280.95
283.78
326.78
313
267.15
283.04
221.75
245.88
151.12
221.25
184.72
112.35
186.27
80.77
67.17
96.1
99.87
115.98
8.94
22.77
19.22
41.64
-41.08
26.62
-53.05
-72.5
-71.85
-78.18
-91.6
-157.14
-143.96
-152.6
-158.83
-128.16
-172.8
-217.63
-169.26
-184.02
-283.38
-242.2
-218.22
-309.12
-306.56
-337.63
-337.32
-307.56
-289.99
-338.35
-351.01
-398.34
-422.52
-428.37
-395.9
-419.69
-442.29
-412.33
-389.87
-428.23
-475.96
-477.52
-494.68
-427.23
-475.32
-486.19
-454.3
-485.62
-438.62
-526.45
-542.31
-501.1
-530.69
-462.05
-492.41
-484.94
-465.81
-484.07
-546.73
-533.98
-461.93
-471.06
-443.86
-522.4
-439.48
-480.01
-508.94
-516.13
-484.84
-426.17
-481.83
-413.14
-487.13
-395.97
-447.16
-384.96
-423.88
-373.04
-404.43
-379.08
-389.95
-360.97
-389.99
-320.25
-302.24
-282.49
-332.07
-285.5
-272.35
-311.89
-232.05
-269.95
-183.36
-239.64
-172.27
-174.94
-214.42
-147.59
-172.53
-148.41
-85.93
-93.66
-112.95
-31.83
-32.82
-83.91
8.68
26.55
38.89
69.99
20.46
5.87
84.45
64.62
139.06
94.98
82.95
91.29
197.51
125.12
185.6
196.34
244.24
191.07
241.49
297.56
252.18
291.77
271.78
312.61
333.87
302.81
368.26
356.54
331.67
372.92
383.27
373
348.61
419.31
431.52
401.53
422.48
414.22
445.42
468.4
498.19
496.12
463.5
472.76
454.95
530.9
459.79
441.07
534.09
485.55
522.49
457.42
515.59
483.21
462.49
490.34
518.66
504.88
478.65
523.37
441.84
526.12
511.66
515.26
488.05
462.55
509
422.49
421.42
441.66
468.04
447.31
406.37
393.19
386.22
418.97
364.78
413.23
338.97
395.58
324.88
358.19
359.05
338.85
279.56
246.6
250.49
263.52
263.7
259.1
245.17
239.17
175.53
152.69
212.6
117.11
147.55
137.76
126.38
57.93
56.87
85.17
104.38
52.29
-1.29
-20.5
38.36
7.75
-35.47
-31.45
-23.26
-90.54
-67.11
-118.48
-93.62
-108.76
-132.71
-122.64
-172.48
-190.36
-233.42
-208.05
-259.49
-209.56
-267.3
-274.84
-275.5
1201.78
-278.99
-339.73
-380.87
-299.03
-305.79
-349.07
-425.34
-362.81
-364.86
-361.55
-426.45
-382.11
-404.98
-413.42
-405.09
-428.75
-456.3
-500.74
-488.46
-510.48
-485.23
-530.03
-531.92
-521.05
-522.08
-464.01
-484.47
-489.14
-547.53
-498.02
-513.94
-491.87
-466.27
-503.25
-542.49
-514.98
-494.14
-507.85
-507.87
-451.86
-525.87
-439.49
-446.2
-510.3
-488.46
-416.94
-403.73
-408.22
-440.41
-419.16
-407.91
-379.73
-349.23
-417.55
-368.02
-381.87
-353.85
-376.45
-335.24
-305.46
-301
-305.2
-259.14
-319.74
-255.16
-292.26
-183.95
-261.63
-167.03
-218.79
-207.62
-174.38
-140.57
-121.24
-137.25
-64.34
-120.08
-98.28
-16.27
-26.99
-65.57
32.35
-38.52
0.03
37.85
56.61
86.3
59.77
126.08
55.66
104.73
163.17
111.96
203.36
161.29
143.12
181.95
169.81
218.18
253.23
306.23
255.17
251.23
303.73
310.77
307.29
294.37
383.5
360.89
381.42
345.73
340.53
368.73
428.32
433.02
432.78
460.36
460.2
446.21
464.49
427.94
446.68
487.49
474.09
484.15
452.33
438.78
448.98
482.79
446.22
507.5
524.45
450.17
503.68
453.7
517.63
503.6
460.93
526.81
517.65
475.05
440.19
492.66
462.83
499.05
429
500.94
508.3
462.16
402.28
470.7
417.57
426.86
419.97
402.23
403.98
427.85
397.12
389.08
337.66
392.04
368.93
356.69
282.11
301.07
264.47
1773.93
282.05
267.29
292.5
196.99
235.68
172.31
163.27
207.21
193.87
178.64
122.95
121.8
124.76
54.35
100.84
112.14
26.7
35.95
-25.88
30.57
-50.85
-20.3
-48.68
-89.67
-24.47
-80.6
-106.66
-133.49
-150.59
-191.96
-139.58
-176.05
-143.17
-153.02
-251.44
-195.27
-223.54
-229.55
-239.49
-318.95
-341.21
-284.38
-343.42
-350.8
-341.17
-389.32
-314.71
-383.56
-428.09
-407.22
-428.71
-401.72
-405.38
-462.91
-467.81
-469.09
-403.79
-430.03
-422.08
-477.3
-470.21
-443.51
-476.45
-445.51
-524.23
-498.69
-525.75
-536.84
-512.25
-484.2
-532.34
-490.4
-473.58
-528.17
-532.52
-537.23
-493.08
-531.39
-503.35
-464.36
-513.81
-470.42
-440.09
-476.72
-490.95
-492.01
-438
-400.47
-471.97
-386.52
-434.66
-396.89
-409.01
-347.37
-434.66
-352.36
-374.78
-333.08
-374.17
-298.99
-355.54
-295.08
-302.88
-280.13
-249.21
-305.36
-242.02
-265.89
-210.66
-209.8
-170.12
-179.55
-211.62
-107.85
-178.04
-77.52
-112.44
-134.45
-82.31
-42.72
-14.21
-56.39
18.07
-13.87
36.43
72.07
15.08
8.38
20.16
124.38
89.93
120.36
165.21
178.94
153.09
165.48
137.79
247.58
231.17
179.97
225.41
261.4
296.66
240.54
294.12
310.29
315.76
346.37
313.07
347.34
375.47
369.33
337.53
401.78
382.5
382.44
437.97
406.91
449.42
456.94
423.25
447.17
458.05
498.38
427.88
470.75
468.39
512.86
469.71
441.85
490.72
523.08
502.83
512.83
514.17
464.61
515.6
478.55
462.65
466.29
499.13
457.46
485.71
500.19
470.46
505.51
472.67
457.41
505.52
445.42
451.22
410.51
412.26
420.98
395.88
385.84
372.36
351.31
432.78
336.77
401.32
406.01
316.27
347.89
370.71
281.54
272.31
258.95
265.62
303.76
260.1
245.23
236.71
209.2
190.39
169.75
213.11
203.46
102.45
157.29
78.92
109.27
34.39
43.6
46.62
19.85
43.61
15.44
-43.81
20.81
-58.69
-88.23
-91.15
-56.06
-126.94
-68.15
-155.73
-117.45
-146.2
-202.62
-171.84
-189.32
-229.09
-270.91
-189.2
-287.63
-279.16
-324.11
-285.73
-319.24
-269.72
-282.96
-371.2
-356.68
-369.6
-319.3
-424.8
-431.9
-350.95
-421.11
-423.86
-435.11
-410.09
-390.64
-438.35
-456.27
-423.8
-428.78
-510.18
-437.15
-502.21
-490.23
-437.53
-490.13
-512.71
-524.56
-481.46
-541.78
-483.74
-526.04
-544.6
-532.91
-532.81
-526.66
-504.79
-499.62
-475.23
-516.95
-485.66
-521.2
-470.58
-434.2
-480.22
-426.65
-415.35
-407.94
-480.25
-383.71
-438.6
-450.6
-427
-364.77
-356.15
-425.14
-382.3
-350.23
-395.86
-356.77
-368.28
-291.5
-298.48
-280.28
-312.45
-293.35
-262.96
-271.3
-269.42
-171.16
-172.39
-225.29
-155.66
-198.25
-184.94
-131.86
-96.36
-96.19
-68.92
-51.3
-43.1
-30.79
-57.65
-31.98
1537.16
-8.18
82.58
48.69
111.85
115.6
62.28
66.71
164.08
102.1
202.63
168.67
151.48
205.43
210.13
179.83
281.53
220.31
225.08
268.73
313.12
311.93
312.91
337.9
342.08
320.36
385.08
336.1
346.34
369.48
427.11
376.79
366.83
443.1
463.51
429.97
456.55
402.08
463.55
478.36
499.89
435.62
490.19
492.53
439.29
449.76
517.79
458.15
459.35
532.43
485.32
451.74
450.34
493.85
516.56
483.71
491.81
498.39
534.86
469.75
447.31
464.72
474.29
485.44
459.34
491.35
420.63
404.85
423.16
419.69
470.84
458.08
370.1
420.81
372.45
388.64
407.39
339.82
353.1
361.5
373.34
304.52
282.01
278.63
323.95
231.89
267.49
247.47
241.18
239.67
173.17
144.54
179.46
141.02
146.8
101.26
164.26
88.61
77.37
75.36
12.88
45.84
-3.77
33.75
4.79
-64.09
-9.55
-77.68
-93.8
-63.42
-138.45
-97.09
-90.49
-115.18
-104.14
-184.87
-169.15
-161.07
-234.65
-232.42
-195.08
-262.88
-239.76
-310.13
-304.13
-322.21
-274.96
-363.11
-368.99
-334.86
-356.97
-392.48
-405.36
-372.18
-386.99
-398.59
-366.92
-403.88
-465.08
-482.49
-450.93
-454.94
-433.69
-440.78
-498.78
-466.27
-491.21
-468.23
-439.92
-521.37
-500.22
-501.39
-508.45
-493.22
-508.7
-547.71
-515.96
-492.37
-544.18
-522.43
-450.47
-538.08
-517.76
-499.86
-452.84
-499.44
-433.45
1068.88
-506.94
-491.68
-480.39
-438.94
-484.93
-435.19
-462.34
-445.27
-406.2
-425.19
-420.68
-426.78
-403.13
-340.94
-328.1
-358.69
-356.1
-354.57
-294.11
-291.1
-256.09
-242.08
-240.75
-237.26
-246.25
-235.44
-202.08
-160.84
-160.78
-180.82
-142.76
-181.77
-101.26
-152.94
-138.27
-26.3
-74.7
-8.71
-23.92
-30.57
-13.41
27.88
45.45
0.91
66.87
35.91
61.96
95.55
72.78
97.35
185.46
195.74
144.85
165.64
196.17
217.02
274.82
202.56
210.26
225.37
264.26
293.87
271.57
286.3
365.26
308.41
323.09
318.91
414.64
358.89
416.6
421.24
420.56
392.63
452.89
479.81
443.54
426.5
412.36
440.72
495.78
446.76
446.55
490.88
512.91
532.46
492.18
461.24
492.94
480.79
477.91
507.05
457.44
514.34
459.11
533.52
502.32
473.96
454.43
490.11
440.28
512.39
487.57
509.58
468.17
494.95
494.67
428.63
472.7
413.95
426.93
449.12
434.13
355.25
378.76
339.32
370.29
330.39
343.26
340.46
380.15
300.76
356.12
321.01
312.08
273.02
283.16
247.52
235.08
265.23
198.3
242.34
185.56
149.05
195.24
175.08
79.32
66.1
103.84
81.89
87.48
37.95
29.18
-26.19
46.44
35.17
-61.42
-61.68
-22.18
-54.49
-50.48
-114.61
-74.27
-137.74
-185.24
-171.74
-197.72
-230.79
-184.17
-201.18
-226.64
-213.4
-275
-297.25
-266.67
-255.4
-277.19
-281.59
-282.88
-359.67
-324.34
-313.03
-418.28
-379.64
-404.5
-403.26
-364.09
-462.59
-474.36
-483.63
-465.46
-445.59
-481.12
-439.82
-459.4
-432.86
-492.72
-522.86
-500.39
-489.27
-443.61
-473.21
-462.54
-453.35
-510.69
-530.25
-490.76
-502.55
-489.6
-539.05
-523.78
-505.68
-542.15
-449.13
-442.22
-498.39
-497.84
-428.29
-486.15
-459.37
-451.73
-437.71
-442.68
-411.46
-416.43
-451.72
-430.05
-414.37
-351.02
-359.5
-422.94
-407.75
-318.94
-377.69
-360.62
-282.83
-314.84
-348.37
-301.16
-279.91
-307.62
-255.19
-245.16
-257.08
-213.23
-145.96
-178.18
-167.02
-160.85
-121.44
-162.57
-153.86
-112.21
-123.78
-44.54
-13.94
-28.03
-2.68
43.64
-29.42
26.6
-5.36
8.25
72.7
78.95
61.96
151.88
104.87
160.02
146.24
134.09
197.01
174.31
224.68
258.93
215.95
213.43
294.71
268.81
324.73
303.32
358.64
294.42
349.11
368.78
330.29
329.59
353.14
356.01
439.67
440.8
461.15
467.21
443.21
438.79
451.77
425.22
497.66
429.31
423.38
517.43
452.99
454.53
502.33
460.18
446.03
495.73
543
530.31
504.34
458.41
517.87
519.26
471.4
529.11
514.08
505.1
501.36
512.8
457.07
446.25
427.27
447.85
439.92
470.57
501.46
445.39
421.22
480.72
411.85
450.75
365.29
368.16
352.96
339.3
400.27
345.27
325.68
305.88
307.19
350.41
346.83
1748.04
233.03
262.1
239.74
256.82
198.19
247.93
192.12
168.33
142.69
114.63
117.14
161.63
135.77
92.38
62.53
67.48
20.91
35.33
6.88
-19.81
-39.41
-4.25
-46.12
-79.57
-51.68
-99.03
-125.82
-71.37
-140.98
-185.22
-142.58
-157.03
-179.17
-181.74
-228.14
-182.2
-252.78
-267.43
-270.31
-233.28
-327.73
-351.92
-292.09
-323.71
-362.96
-311.35
-323.35
-367.62
-367.09
-385.79
-412.39
-422.26
-388.06
-430.88
-392.01
-455.48
-399.63
-495.78
-475.25
-505.46
-450.67
-446.06
-488.53
-519.09
-495.21
-529.57
-530.3
-453.27
-494.75
-462.79
-460.35
-452.67
-456.86
-517.46
-467.1
-449.59
-506.61
-516.38
-440.92
-443.64
-458.16
-461.81
-506.45
-433.6
-501.52
-485.02
-456.68
-400.25
-433.22
-427.4
-419.59
-368.38
-440.16
-434.37
-426.79
-414.62
-355.26
-340.37
-351.13
-290.6
-318.15
-304.37
-284.54
-324.96
-307.82
-299.9
-286.52
-285.74
-202.31
-258.44
-250.03
-187.74
-127.5
-194.96
-142.54
-141.37
-140.75
-74.2
-115.3
-87.31
-87.97
-39.26
-28.02
-20.83
-15.04
-21.28
65.15
98.54
36.42
75.47
56.16
108.41
151.54
106.29
176.02
134.05
210.72
192.92
246.17
201.82
266.75
239.27
216.19
280.37
268.9
341.32
285.1
327.88
350.26
376
308.59
383.81
394.83
414.63
410.98
426.06
404.6
416.75
381.44
402.47
452.95
473.88
432.97
477.41
510.03
506.95
1933.94
438.06
493.2
495.01
456.21
484.93
545.04
448.44
452.82
451.86
532.93
505.83
510.06
465.09
454.32
542.2
466.83
462.33
518.4
444.01
495.75
515.63
476.08
470.77
443.91
417.67
429.25
442.36
441.86
446.7
364.01
376.7
392.85
343.56
332.75
374.45
371.89
387.75
377.7
325
311.31
245.16
326.11
299.65
291.13
282.4
182.37
197.1
207.05
197.37
198.43
208.91
154.84
115.93
155.89
139.18
90.79
66.11
65.43
16.64
73.11
-6.57
23.82
-13.06
-54.17
-17.39
-111.83
-39.28
-89.49
-94.48
-95.88
-177.62
-121.99
-203.89
-185.16
-172.04
-250.29
-231.67
-240.34
-209.94
-259.71
-258.81
-242.24
-340.17
-312.31
-339.58
-377.1
-345.63
-373.54
-410.71
-395.16
-378.44
-395.14
-378.21
-421.06
-440.45
-406.23
-418.12
-411.05
-463.63
-429.96
-457.28
-496.44
-513.72
-511.04
-463.01
-439.6
-495.12
-471.27
-509.74
-533.34
-465.74
-463.63
-491.76
-535.42
-469.95
-514.77
-546.86
-544.2
-517.22
-519.93
-468.87
-451.63
-468.2
-525.22
-424.72
-472.02
-492.54
-414.35
-432.9
-439.04
-411.87
-435.28
-390.91
-459.87
-396.71
-431.48
-334.89
-369.03
-337.06
-362.67
-314.24
-282.07
-325.21
-271.57
-317.76
-300
-316.13
-217.5
-241.09
-226.31
-203.44
-181.68
-194.84
-170.73
-136.28
-144.29
-87.33
-112.34
-141.28
-95.98
-33.82
-70.85
-4.43
-59.76
-1.78
1503.46
51.73
3.25
82.3
86.27
113.59
104.14
91.37
162.9
148.3
170.73
130.76
223.26
229.37
185.77
256.83
251.97
197.88
218.79
319.28
264.33
294
304.37
333.35
361.23
343.43
317
413.34
334.09
380.67
355.37
426.22
395.22
451.63
379.47
419.15
488.88
461.54
436.22
420.16
483.46
485.94
482.5
448.37
462.75
446.26
527.92
490.97
484.33
482.4
529.22
520.62
515.06
489.91
508.75
543.79
462.96
538.96
443.68
529.22
486.74
447.23
494.6
509.16
513.47
465.82
422.05
431.85
413.65
427.03
436.35
444.65
424.78
442.36
400.74
336.33
387.62
413.99
348.14
309.85
337.75
330.76
267.71
278.51
270.98
274.52
242.83
225.04
203.61
252.6
195.21
173.79
208.32
119.96
105.09
152.6
152.02
117.13
77.17
120.29
79.26
51.73
43.48
-19.64
-37.21
-39.27
-65.4
-34.46
-35.09
-41.93
-132.9
-90.38
-119.55
-118.82
-176.14
-118.12
-129.72
-218.56
-209.69
-230.16
-203.45
-283.41
-284.35
-299.27
-285.6
-252.91
-322.54
-303.09
-342.89
-377.05
-394.28
-372.47
-344.98
-416.72
-348.35
-357.17
-398.22
-463.58
-402.35
-466.81
-399.24
-464.71
-406.58
-506.47
-440.02
-436.75
-442.71
-443.93
-434.68
-447.28
-491.98
-460.47
-460.42
-514.66
-526.16
-461.7
-450.79
-480
-520.39
-466.47
-543.2
-485.6
-511.52
-467.55
-520.74
-470.26
-430.37
1003.6
-500.57
-442.37
-495.56
-428.68
-414.47
-389.09
-392.07
-385.39
-382.61
-384.44
-412.81
-423.7
-359.64
-342.21
-325.28
-360.57
-340.89
-363.42
-267.01
-327.66
-314.13
-322.86
-300.05
-264.83
-229.33
-178.61
-198.51
-161.84
-214.1
-136.62
-116.51
-174.33
-122.73
-142.47
-94.36
-62.56
-82.86
-39.37
-39.43
-28.83
-34.45
-20.76
35.47
77.86
9.52
71.92
72.42
113.04
91.13
140.05
176.63
128.02
221.66
140.33
186.9
173.03
183.76
209.38
281.01
310.77
310.82
252.89
272.12
328.29
333.26
368.03
316.4
335.8
385.27
391.86
350.8
434.16
418.17
403.82
379.99
422.32
470.82
496.29
495.72
474.62
420.89
511.36
483.94
529.26
522.21
502.57
525.78
535.16
484.32
533.89
546.34
462.99
498.95
530.64
536.45
480.96
490.38
482.42
451.01
498.91
515.25
435.72
472.93
450.56
509.42
501.97
454.81
406.37
470.31
484.01
475.55
423.91
446.63
450.82
392.21
431.56
423.03
364.32
322.51
379.79
324.3
345.78
345.83
342.36
278.39
280.45
218.59
288.07
283.06
177
207.89
200.62
192.28
174.34
111.69
114.4
102.82
130.15
112.66
78.47
36.28
66.19
84.36
13.74
-24.77
18.08
1.66
-60.64
-73.76
-115.65
-125.45
-139.23
-67.89
-111.07
-93.57
-141.88
-173.07
-138.79
-221.73
-185.72
-220.01
-235.47
-272.43
-303.95
-228.53
-290.44
1245.37
-335.83
-362.49
-348.29
-324.89
-314.05
-385.11
-335.72
-392.32
-446.59
-440.73
-401.65
-449.13
-390.31
-401.74
-491.76
-444.08
-466.62
-454.84
-456.04
-486.81
-466.12
-488.21
-514.6
-493.61
-482.06
-508.11
-477.61
-522.84
-527.83
-513.17
-459.54
-546.35
-470.68
-514.15
-462.83
-479.64
-490.62
-494.85
-469.66
-507.4
-436.16
-427.29
-439.78
-474.53
-461
-468.78
-392.84
-386.8
-436.13
-408.88
-392.16
-423.82
-352.09
-335.88
-395.51
-403.74
-324.43
-386.64
-302.29
-266.56
-343.09
-289.24
-305.24
-287.06
-222.14
-201.04
-261.05
-165.45
-185.89
-212.61
-173.8
-111.61
-175.17
-176.96
-161.62
-88.39
-130.06
-63.28
-50.68
-52.01
-63.88
-48.8
-43.82
4.54
76.54
12.27
88.55
78.76
104.39
149.59
130.98
117.9
159.05
177.56
198.82
238.41
227.36
259.87
228.47
267.73
250.79
238.16
322.07
267.06
311.66
355.47
288.73
388.11
377.81
328.69
331.74
377.5
434.92
357.96
401.34
380.32
445.04
437.92
461.59
476.01
447.67
476.25
472.67
447.48
481.22
487.66
523.81
514.59
511.07
537.87
467.03
500.64
479.85
495.86
506.59
537.68
505.68
475.06
529.38
519.9
447.06
533.34
479.81
511.46
440.81
431.52
482.07
447.57
492.73
459.52
448.34
440.56
444.28
397.82
450.08
449.94
375.77
348.45
394.24
325.78
361.99
363.4
286.9
288.34
263.13
1815.26
298.19
318.27
249.45
260.61
189.48
178.78
193.14
189.83
217.93
191.92
158.38
87.68
69.02
104.87
96.92
29.14
30.29
22.79
17.45
59.64
-12.68
-1.35
-16.69
-1.76
-107.77
-122.57
-49.98
-67.58
-80.04
-160.37
-135.84
-190.65
-199.29
-228.24
-172.52
-262.65
-229.19
-285.9
-242.15
-287.25
-292.71
-322.94
-310.06
-303.34
-320.41
-322.32
-317.92
-395.41
-349.11
-359.31
-369.75
-436.64
-421.51
-383.08
-430.39
-450
-436.01
-456.33
-427
-413.99
-418.54
-493.48
-514.83
-486.92
-472.11
-532.24
-498.28
-458.01
-452.04
-498.53
-531.3
-539.74
-532.75
-490.14
-450.76
-516.81
-454.51
-515.87
-500.99
-523.96
-478.39
-446.05
-475.4
-472.26
-429.4
-447.97
-470.7
-412.63
-475.75
-421.26
-457.74
-464.4
-388.48
-405.4
-348.72
-352.1
-416.62
-327.15
-400.85
-343.87
-356.21
-305.3
-298.96
-249.51
-282.09
-289.68
-261.07
-244.93
-217.02
-179.24
-186.4
-162.41
-162.96
-171.6
-122.98
-89.97
-74.23
-85.3
-54.61
-70.11
-72.12
-35.82
-29.77
-28.77
2.65
-22.74
14.96
47.38
94.05
114.98
139.24
151.8
144.73
121.22
119.22
199.22
166.74
239.79
158.9
183.34
213.55
265.16
290.24
232.16
261.99
284.99
263.6
288.44
335.94
390.87
317.86
316.93
346.33
335.05
433.28
376.62
436.85
382.62
414.24
395.01
411.3
495.16
454.55
442.48
451.43
514.2
1934.79
436.85
519.74
505.65
524.97
530.42
517.72
481.28
462.95
464.37
533.23
526.59
499.95
472.26
457.13
530.18
477.16
533.14
436.83
495.11
473.94
425.83
486.44
413.59
449.21
498.84
454.17
443.73
462.69
417.39
370.8
429.09
376.93
418.71
348.17
343.39
387.05
297.07
305.02
350.79
352.27
256.69
237.14
301.75
240.16
208.76
205.18
231.63
226.7
153.3
187.99
132.85
165.8
149.48
133.24
155.13
82.94
73.62
21.89
2.66
62.7
-19.7
44.05
-56.89
-60.66
-80.27
-68.06
-35.72
-90.01
-83.15
-74.68
-108.85
-123.35
-142.03
-181.75
-169.98
-171.7
-225.26
-212.45
-197.73
-257.09
-304.22
-288.36
-281.27
-346.55
-327.03
-297.92
-382.74
-344.23
-385.05
-364.89
-412.62
-342.65
-388
-417.87
-451.2
-393.69
-447.57
-477.14
-429.23
-444.42
-419.63
-448.35
-455.41
-492.46
-527.01
-492.85
-520.82
-522.56
-482.83
-497.93
-481.68
-488.33
-523.45
-517.33
-548.74
-492.19
-492.1
-540.07
-458.41
-489.45
-533.99
-526.42
-493.01
-479.78
-518.98
-516.8
-491.39
-440.93
-418.6
-404.06
-465.49
-427.08
-401.31
-463.62
-424.1
-353.78
-344.37
-341.16
-360.95
-396
-319.32
-359.46
-345.79
-306.36
-338.44
-273.49
-254.55
-299.35
-209.14
-266.47
-261.99
-235.79
-179.02
-138.55
-171.88
-191.86
-103.82
-122.88
-149.31
-131.85
-96.05
-86.73
-55.78
-48.25
-24
-13.97
1544.29
55.12
72.32
74.18
57.11
84.06
54.39
151.97
104.23
140.06
173.21
191.94
174.27
151.02
236.39
189.39
233.11
269.47
234.42
322.21
255.91
339.98
295.45
329.42
348.5
387.25
373.59
320.69
402.94
388.2
412.9
382.73
367.75
402.45
435.95
417.24
430.41
478.64
494.94
464.64
494.78
516.79
480.98
438.86
484.15
456.31
496.96
533.76
485.68
492.18
493.15
484.55
468.23
513.3
468.49
543
482.1
443.47
470.61
497.68
467.95
476.59
477.53
428.06
499.09
432.69
487.81
490.97
402.2
466.59
414.31
414.1
447.34
364.63
372.85
375.92
386.43
366.34
345.38
359.75
279.77
330.59
255.81
290.04
241.52
218.08
204.51
275.33
226.9
261.48
157.51
156.54
129.84
155.95
96.74
124.3
105.43
78.71
73.08
42.18
96.22
71.29
53.16
56.51
-7.39
-1.25
2.66
-24.34
-100.3
-44.42
-47.87
-138.22
-123.63
-132.52
-147.22
-194.74
-164.47
-218.87
-204.59
-179.41
-285.81
-273.47
-234.1
-295.05
-265.37
-253.78
-310.66
-295.05
-380.07
-348.78
-389.6
-388.03
-420.1
-351.07
-387.66
-403.64
-432.7
-450.73
-418.34
-469.69
-479.13
-458.37
-427.46
-488.83
-432.84
-454.29
-512.64
-447.22
-517.69
-456.45
-500.39
-464.24
-507.86
-469.66
-451.96
-485.71
-524.18
-537.09
-533.99
-535.28
-485.44
-500.59
-452.98
-491.53
-484.31
-520.2
1053.21
-436.57
-485.56
-473.83
-484.18
-494.31
-476.91
-459.12
-424.52
-454.49
-401.85
-438.53
-350.67
-419.62
-358.34
-390.89
-335.82
-288.84
-343.46
-311.71
-332.67
-312.51
-270.57
-274.9
-303.76
-269.51
-206.11
-238.64
-151.25
-138.53
-144.97
-127.27
-121.8
-90.31
-158.99
-140.54
-59.09
-36.07
-103.28
-37.48
-28.39
37.18
-26
30.89
16.69
46.01
86.6
114.02
114.5
139.02
126.79
132.22
173.37
187.87
133.19
158.01
228.23
231.01
277.39
248.92
228.24
321.53
257.25
272.36
325.42
340.07
290.5
379
374.99
406.59
369.87
432.78
392.16
433.77
437.26
423.33
449.8
434.73
413.87
495.81
466.69
462.69
500.79
499.29
527.23
454.27
496.86
499.15
471.06
518.23
499.25
474.7
520.42
454.65
507.16
516.19
512.61
469.92
542.69
485.53
460.18
512.76
508.08
438.47
507
447.99
482.8
454.32
474.07
494.14
412.19
418.96
418.77
446.07
368.18
434.16
375.32
410.13
383.75
381.48
357.91
298.28
372.22
337.06
314.14
286.47
249.78
245.13
237.65
220.19
255.58
255.27
227.34
206.46
222.19
200.86
119.84
157.52
141.53
131.2
95.39
55.16
78.11
13.41
63.17
-3.07
-35.96
-36.06
-43.62
-4.21
-30.66
-114.8
-79.06
-108
-94.05
-109.99
-175
-144.93
-213.89
-161.55
-175.31
-219.44
-198.26
-246.72
-286.58
-314.89
-246.25
1218.15
-349.81
-299.06
-288.37
-316.01
-322.49
-384.25
-383.59
-364.11
-396.33
-428.05
-402.28
-396.98
-470.34
-473.33
-470.22
-453.34
-502.06
-443.77
-517.73
-457
-483.85
-453.55
-468.25
-501.4
-468.94
-480.14
-460.73
-463.41
-545.37
-527.09
-521.73
-484.09
-455.19
-456.41
-512.98
-508.22
-464.63
-447.47
-458.96
-469.08
-471.76
-481.44
-421.32
-463.87
-470.55
-474.88
-414.33
-425.7
-415.43
-391.86
-362.75
-436.29
-426.15
-369.26
-338.77
-325.33
-312.13
-373.68
-373.66
-350.27
-319.02
-287.18
-254.14
-305.85
-245.94
-197.66
-195.74
-245.13
-167.43
-187.48
-160.42
-193.11
-140.92
-120.2
-92.87
-104.82
-52
-57.59
-87.43
-88.38
-71.11
-51.44
-9.28
30.48
77.26
58.49
106.19
92.56
62.95
127.28
138.48
123.53
184.64
196.01
170.31
152.5
154.94
183.45
271.63
213.41
286.63
248.39
239.63
329.05
269
335.89
347.07
353.07
358.14
403.14
352.03
415.75
383.8
363.48
405.04
459.79
385.98
395.88
446.75
424.51
406.5
464.87
417.72
468.08
481.1
518.46
522.27
464.73
495.06
508.68
478.32
530.26
473.44
486.67
513.35
484.2
533.29
534.7
455.1
467.99
453.86
499.9
479.63
441.18
441.05
493.68
435.63
457.49
465.51
439.85
493.07
439.21
380.84
409.48
404.21
428.01
347.77
352.74
369.87
354
399.08
380.17
363.82
324.25
272.99
346.52
1766.37
290.04
269.8
290.64
219.16
262.79
207.73
209.89
181.22
168.72
198.94
115.35
111.36
87.01
43.12
109.04
51.39
88.5
72.7
32.95
41.01
-41.21
-18.32
-29.09
-32.5
-42.4
-71.52
-148.95
-133.93
-165.35
-162.82
-154.14
-221.47
-182.19
-192.35
-241.51
-229.69
-247.44
-244.79
-249.81
-316.34
-343.12
-295.4
-330.09
-287.04
-371.89
-309.57
-328.57
-404.39
-395.38
-436.17
-404.89
-364.02
-395.45
-382.44
-453.61
-485.8
-457.57
-413.25
-491.1
-507.85
-482.72
-434.2
-469.83
-454.86
-503.26
-495.06
-459.25
-503.49
-479.95
-534.8
-528.98
-521.76
-477.42
-487.49
-526.57
-543.9
-515.58
-471.64
-456.31
-527.53
-468.86
-493.95
-424.91
-479.45
-456.49
-470.03
-409.62
-448.73
-412.27
-380.63
-383.78
-385.19
-394.5
-359.98
-371.58
-354.58
-371.86
-314.94
-341.66
-312.7
-348.11
-284.38
-266.35
-332.34
-313.55
-268.72
-211.25
-246.7
-213.45
-232.58
-217.65
-217.14
-159.5
-116.72
-134.35
-121.53
-101.55
-96.11
-75.11
-34.27
-18.41
5.98
-65.27
-29.38
16.59
49.72
84.84
16.66
108.6
91.67
57.67
80.21
111.6
109.82
142.19
160.65
234.96
242.28
257.02
255.23
283.6
212.38
229.95
305.55
303.54
319.65
266.88
348.74
309.64
380.47
394.99
392.32
348.49
356.49
385.56
368.1
455.02
404.99
478.17
430.61
479.05
410.84
439.26
465.42
519.73
1942.45
487.55
520.97
488.51
476.37
539
504.3
512.52
521.79
537.54
531.34
455.27
507.08
518.85
536.05
479.36
488.03
459.44
506.27
438.54
526.31
506.8
507.88
420.67
433.88
455.7
451.59
407.4
426.19
439.01
387.69
447.56
413.24
401.1
385.42
411.06
399.94
335.78
369.02
277.21
319.23
344.11
256.24
285.63
294.49
255.84
245.64
274.62
216.34
157.35
140.95
197.03
155.47
181.38
162.38
109.7
62.85
36.05
115.74
100.98
10.62
38.34
-23.42
29.94
-18.02
-82.25
-42.96
-107.19
-58.64
-84.75
-117.06
-83.34
-148.62
-119
-202.82
-180.44
-172.16
-171.23
-228.67
-272.19
-274.33
-282.41
-253.12
-332.2
-331.88
-306.53
-278.43
-320.99
-332.44
-333.73
-323.64
-363.55
-366.21
-405.25
-404.35
-456.7
-408.44
-409.19
-488.2
-398.88
-490.4
-478.64
-487.8
-499.29
-510
-518.62
-441.96
-481.04
-481.04
-527.64
-474.36
-535.26
-488.49
-468.66
-507.18
-459.2
-516.74
-487.3
-542.15
-501.08
-512.06
-524.88
-512.74
-434.69
-490.08
-505.18
-454.61
-506.41
-443.3
-461.97
-436.43
-432.44
-400.35
-418.21
-448.89
-361.28
-413.32
-382.93
-413.44
-382.99
-379.63
-327.64
-350.01
-344.91
-268.73
-311.61
-322.62
-242.15
-278.26
-287.66
-197.41
-181.6
-166.5
-163.74
-209.3
-211.15
-137.66
-143.77
-100.56
-75.28
-72.09
-115.71
-34.93
-83.77
-88.57
-63.29
-48.3
1545.69
8.75
25.84
62.18
22.48
125.69
138.35
110.63
102.6
133.21
182.86
129.13
164.04
197.47
248.76
212.23
226.97
202.71
288.84
248.48
252.01
291.26
297.31
299.45
301.13
390.12
312.4
385.56
364.96
416.18
399.69
405.5
425.72
464.73
446.73
423.52
484.96
460.4
436.88
435.71
482.41
432.96
477.6
476.39
450.77
440.03
495.84
460.3
486.07
543.57
480.63
504.6
522.86
534.91
458.28
463.31
457.89
470.71
525.14
442.9
477.98
504.94
438.67
488.47
438.85
506.17
479.6
470.37
460.63
446.28
418.55
376.81
428.7
406.97
423.2
419.24
420.49
337.94
345.23
362.87
326.24
302.1
288.48
245.27
260.5
245.72
250.53
245.75
239.84
171.47
241.85
219.34
142.75
148.27
193.69
118.65
165.16
148.81
79.41
29.84
18.97
60.06
29.9
-33.96
19.76
7.1
-79.98
-0.46
-31.25
-69.45
-69.79
-148.98
-157.33
-172.3
-161.75
-181.46
-175.03
-168.99
-214.38
-227.1
-191.33
-246.84
-275.11
-281.1
-292.04
-267.03
-358.34
-310.67
-357.22
-313.13
-376.77
-339.04
-394.72
-380.14
-350.39
-360.04
-406.82
-410.41
-419.27
-452.1
-464.43
-483.42
-445.07
-465.94
-516.6
-486.03
-519.23
-493.68
-489.16
-498.21
-533.48
-456.77
-455.88
-509.36
-462.11
-457.22
-465.7
-549.04
-451.66
-514.34
-485.04
-517.89
-490.71
-534.59
-478.97
-462.38
-478.56
998.22
-427.99
-477.2
-469.8
-492.66
-412.56
-455.48
-417.9
-398.06
-368.28
-373.18
-402.89
-405.38
-390.35
-315.16
-387.71
-338.38
-330.48
-335.3
-314.89
-298.85
-241.81
-245.83
-254.93
-251.72
-184.29
-248.27
-174.81
-229.49
-187.14
-133.65
-132.38
-165.15
-77.06
-84.2
-137.55
-95.33
-98.63
-23.63
-13.06
8.78
26.12
41.61
38.46
42.17
93.3
55.84
129.46
103.31
157.72
181.75
187.39
188.86
128.35
146.85
242.55
178.99
252.94
258.69
224.16
318.15
321.99
311.73
267.81
295.27
281.24
311.67
324.47
361.07
350.67
370.43
398.56
404.48
369.62
468.78
469.55
386.45
471.43
445.52
490.92
428.96
507.97
494.65
486.28
463.17
479.51
530
442.73
484.17
492.1
510.79
483.54
532.49
514.32
482.87
540.75
480.75
472.68
466.56
478.76
496
448.97
488.57
513.91
471.07
434.99
429.18
471.5
490.9
424.54
455.54
397.99
447.63
367.58
378.89
423.76
370.39
411.57
362.7
335.9
373.02
366.64
300.45
354.79
271.75
249.58
300.34
219.48
288.2
239.8
215.21
248.75
207.91
145.47
174.47
195.2
164.61
166.31
95.37
105.95
52.63
49.43
76.6
82.28
58.81
32.51
14.53
-28.4
-78.7
-29.46
-77.13
-79.06
-58.68
-74.26
-136.53
-161.14
-207.67
-146.13
-188.62
-176.55
-244.95
-271.3
-214.2
-277.63
-241.93
-233.91
1198.32
-345.61
-309.82
-308.92
-375.42
-394.75
-340.17
-354.42
-405.73
-419.47
-379.24
-379.17
-424.72
-435.19
-396.01
-420.57
-412.29
-461.44
-449.13
-450.17
-492.79
-442.68
-502.36
-495.73
-502.77
-501.19
-534.2
-470.08
-490.14
-496.24
-457.63
-509.79
-544.46
-506.31
-504.06
-458.24
-454.66
-520.4
-464.62
-469.68
-460
-515.36
-519.64
-487.5
-437.99
-462.4
-458.25
-469.53
-454.5
-461.48
-392.48
-402.04
-408.92
-365
-395.3
-375.1
-402.38
-328.07
-345.76
-341.36
-327.41
-274.81
-326.57
-255.24
-263.56
-303.39
-253.52
-209.56
-224.29
-199.87
-207.19
-160.69
-182.25
-184.48
-149.85
-169.89
-139.21
-101.43
-70.08
-48.27
-57.37
-79.77
-9.63
23.61
54.92
40.71
45.06
19.22
110.92
68.47
142.2
71.58
150.22
128.68
166.19
216.85
196.93
219.04
252.95
193.55
229.97
219.17
222.57
251.47
243.86
270.35
301.17
319.87
377.77
349.32
348.03
322.72
354.59
435.67
387.38
368.26
447.82
432.78
432.01
424.08
437.84
422.33
462.47
477.04
508.34
466.53
452.37
504.88
498.59
457.21
530.72
476.99
474.93
528.21
502.76
533.74
508.51
508.89
515.04
474.01
507.7
531.35
458.42
456.33
471.51
471.47
515.69
519.51
450.23
425.14
501.47
411.52
393.91
422.73
450.01
381.62
370.81
359.22
409.06
332.91
348.22
407.07
380.25
347.06
371.01
308.08
263.82
1818.46
322.32
248.53
226.87
218.78
239.75
251.37
225.19
221.48
168.67
126.29
190.42
149.16
142.42
116.84
90.76
107.05
61.37
14
-24.04
28.67
5
-45.71
-53.86
-67.72
-116.95
-95.33
-86.41
-75.36
-115.49
-130.03
-185.14
-193.78
-212.24
-156.16
-244.25
-185.73
-270.15
-206.24
-313.75
-289.64
-293.2
-299.93
-297.24
-360.44
-303.9
-381.4
-354.13
-401.62
-340.48
-375.3
-424.52
-389.9
-455.2
-454.73
-466.18
-465.89
-485.11
-428.15