-467.94
-478
-413.41
-497.95
-493.26
-430.13
-502.93
-497.27
-498.82
-432.38
-506.24
-483.26
-456.77
-510.64
-480.88
-539.68
-454.36
-503.96
-515.42
-452.23
-532.69
-477.03
-469.22
-467.03
-520.56
-443.01
-481.61
-498.35
-442.61
1029.05
-505.9
-494.36
-436.41
-401.75
-470.22
-430.83
-416.6
-413.84
-409.11
-380.27
-427.8
-413.46
-329.34
-389.27
-326.99
-318.65
-320.29
-313.06
-317.92
-344.29
-319.92
-274.64
-271.92
-203.06
-271.93
-228.06
-253.49
-189.6
-219.55
-133.07
-108.05
-98.45
-106.78
-95.54
-114.02
-61.22
-44.53
-38.17
-73.22
-52.28
16.04
-4.5
-14.71
37.38
32.91
77.58
115.68
105.04
79.68
149.04
154.24
173.05
186.57
221.73
220.44
222.27
179.3
264.7
225.19
279
279.23
320.83
317.35
286.81
286.67
350.25
354.17
349.27
398.91
346.82
346.59
416.92
379.69
419.71
463.88
418.74
438.68
406.48
454.56
459.72
505.98
499.71
524.17
503.81
445.07
472.55
502.45
520.06
468.47
522.22
491.28
455.82
496.25
482.43
451.51
546.15
530.15
488.08
533.39
527.34
455.1
461.66
477.82
516.53
453.1
433.09
428.34
498.45
401.01
409
464.97
471.99
435.06
405.71
445.02
422.03
364.53
350.01
337.43
364.49
320.83
353.71
265.2
327.83
320.34
309.37
243.04
252.57
243.1
223.6
221.77
163.45
190.25
208.95
159.99
173.35
144.01
113.73
62.54
74.35
57.3
51.1
78.93
40.84
-36.32
-34.15
-23.42
-44.28
-12.35
-43.26
-43
-91.96
-74.78
-157.92
-134.13
-166.09
-167.9
-208.14
-156.26
-190.57
-203.56
-272.99
-247.61
-284.02
-322.31
-246.28
1204.3
-309.22
-320.75
-317.27
-392.46
-347.4
-363.19
-377.4
-401.39
-370.69
-373.44
-402.46
-468.51
-405.72
-440.77
-486.14
-404.02
-492.94
-491.41
-486.81
-472.29
-458.64
-492.81
-483.34
-531.84
-501.96
-518.34
-546.47
-503.89
-542.35
-454.02
-492.7
-506
-456.1
-470.3
-481.48
-519.4
-487.67
-520.19
-489.35
-479.59
-443.52
-457.47
-509
-464.7
-449.87
-461.02
-438.27
-427.7
-460.25
-414.49
-379.43
-439.14
-428.95
-335.03
-329.98
-399.7
-388.06
-320.92
-325.72
-296.32
-353.57
-324.5
-286.03
-219.97
-288.72
-243.27
-182.26
-246.73
-180.29
-207.97
-159.38
-146.39
-146.99
-85.38
-77.91
-141.97
-120.3
-102.61
-9.29
-44.51
-54.56
-45.13
53.13
69.04
73.48
45.05
86.62
84.56
141.73
117.89
138.05
109.9
191.01
149.38
223.49
230.57
168.29
202.63
194.35
293.15
238.46
258.63
279.41
309.69
263.93
301.95
355.45
321.62
374.73
381.84
406.17
384.94
365.26
432.75
369.29
461.57
382.29
463.41
436.74
432.19
506.37
451.97
502.93
448.75
458.17
480.53
444.6
457.64
493.21
510.82
484.39
485.43
548.58
473.7
535.99
475.32
465.28
473.01
456.06
537.81
505.15
495.9
523.97
516.6
489.89
502
491.45
480.63
414.98
419.87
434.53
425.27
396.35
378.37
390.39
412.66
350.76
394.07
343.79
392.08
319.49
372.99
344.46
337.24
270.74
1821.64
324.73
249.12
270.33
282.39
230.56
241.04
206.35
158.01
218.07
180.45
143.05
88.78
148.97
112.81
92.58
23.57
104.34
66.11
72.19
-30.61
14.71
-51.73
-51.83
-7.35
-108.68
-68.58
-137.29
-75.12
-116.53
-181.58
-133.29
-214.05
-146.61
-191.5
-231.31
-172.76
-276.72
-251.52
-242.99
-266.12
-310.91
-269.65
-329.75
-285.39
-310.99
-296.36
-353.52
-369.57
-375.21
-341.59
-437.61
-446.12
-413.48
-456.47
-457.77
-439.58
-453.59
-465.21
-439.46
-497.82
-497.19
-502.2
-476.36
-487.15
-524.79
-505.69
-463.49
-501.07
-471.03
-493.62
-514.85
-451.54
-450.24
-503.29
-490.06
-533.58
-530.54
-503.11
-456.46
-521.18
-529.64
-445.7
-519.09
-473.02
-502.57
-436.01
-504.72
-400.28
-400.59
-421.77
-409.54
-383.04
-431.08
-387.97
-364.86
-421.62
-338.95
-321.79
-349.98
-299.43
-283.17
-356.72
-329.56
-301.93
-300.07
-261.67
-214.45
-290.13
-215.67
-204.63
-230.5
-207.25
-161.17
-153.02
-100.92
-141.05
-78.55
-140.55
-77.1
-100.21
-65.73
-20.29
-47.93
16.65
-42.09
4.7
6.58
54.65
23.14
46.15
123.05
148.29
146.1
137.55
161.63
201.44
173.2
176.68
229.92
173.1
212.34
232.49
275.44
307.32
309
310.21
279.41
332.07
288.6
348.98
334.6
314.85
356.41
373.71
405.13
387.38
439.75
456.28
473.85
421.22
463.9
407.33
450.25
481.56
510.52
476.51
2021.44
526.75
510.17
452.93
473.57
490.71
493.17
508.04
532.65
475.14
522.74
498.46
544.35
487.45
540.61
488.98
466.23
453.43
471.73
494.61
428.94
484.83
487.52
457.81
427.99
403.75
444.76
402.84
443.5
451.27
405.65
409.16
401.27
397.66
419.41
361.85
320.97
312.13
301.05
313.63
287.39
267.79
235.91
244.38
222.8
252.38
237.69
202.43
175
198.77
227.69
134.68
140.85
147.05
119.37
120.87
90.06
109.78
68.26
68.79
24.45
63.28
-13.51
-22.35
-36.57
1.23
-21.99
-119.09
-113.28
-65.39
-134.4
-137.39
-176.11
-148.33
-153.04
-221.62
-197.51
-260.96
-226.12
-248.77
-296.04
-229.27
-324.56
-295.27
-311.96
-361.49
-298.7
-328.77
-351.93
-369.66
-325.79
-378.11
-392.05
-399.12
-417.99
-417.21
-420.63
-429.42
-402.92
-419.66
-478.97
-449.45
-487.88
-520.32
-493.83
-480.98
-495.34
-443.52
-448.38
-512.05
-504.3
-484.24
-471.32
-504.43
-525.34
-469.07
-480.8
-505.26
-469.97
-445.72
-541.65
-493.91
-518.23
-475.04
-464.11
-472.69
-514.2
-424.02
-423.9
-499.6
-460.37
-453.66
-431.2
-383.54
-397.52
-414.55
-405.66
-411.74
-390.2
-403.37
-352.41
-341.17
-303.46
-353.78
-265.66
-288.9
-283.96
-274.6
-228.66
-287.22
-250.31
-260.75
-240.08
-201.4
-142.62
-152.88
-193.55
-145.28
-173.2
-148.16
-115.14
-50.29
-114.65
-44.08
-65.33
-66.59
33.02
1488.75
-4.96
16.89
52.14
112.07
134.52
76.4
133.92
153.3
183.5
178.92
187.01
206.16
174.57
233.89
209.87
255.9
282.49
278.77
234.09
253.36
302.32
334.28
332.82
316.66
336.32
344.19
396.78
393.29
353.4
419.71
388.71
395.48
404.65
397.56
403.86
465.49
423.52
502.87
496.19
454.98
493.57
441.49
504.94
515.6
495.81
524.2
451.96
469.62
464.19
523.12
513.27
521.36
514.88
535.87
523.41
523.53
471.26
529.19
485.62
479.45
518.81
476.51
445.14
414.74
481.74
497.33
417.28
448.26
431.28
401.17
413.81
380.62
394.66
374.26
404.15
412.56
379.75
396.43
299.87
359.67
303.19
333.55
251.32
250.94
298.39
232.97
263.19
237.66
228.53
154.45
168.44
169.87
174.41
100.14
104.16
107.22
69.78
128.22
102.03
21.97
51.7
-11.87
-32.41
23.25
-25.67
-39.13
-5.28
-25.96
-101.51
-126.81
-147.2
-134.94
-170.25
-157.08
-205.43
-135.51
-214.85
-247.67
-195.92
-199.2
-214.6
-267.61
-267.03
-309.02
-267.06
-302.55
-301.7
-310.92
-352.77
-395.02
-354.25
-352.67
-400.35
-368.99
-375.29
-444.57
-378.86
-404.93
-436.04
-401.67
-423.21
-494.17
-422.26
-457.72
-484.32
-509.89
-511.86
-488.78
-464.24
-498.77
-478.1
-517.91
-490.34
-452.79
-521.23
-459.56
-474.54
-500.2
-465.49
-506.22
-491.04
-533.03
-448.15
-487.64
-526.5
999.36
-513.27
-485.32
-482.65
-474.63
-434.14
-472.92
-427.58
-381.35
-383.39
-371.33
-445.71
-388.53
-401.96
-407.16
-368.38
-383.4
-326.5
-327
-305.7
-304.77
-300.15
-237.05
-296.17
-302.71
-228.07
-236.2
-212.75
-195.82
-141.67
-122.33
-111.62
-162.32
-127.59
-149.99
-123.72
-63.18
-71.3
-65.22
-79.3
-42.47
15.52
-4.67
1.95
84.9
98.35
65.43
117.73
85.16
109.3
127.82
99.15
189.01
153.53
224.29
159.44
204.6
187.45
246.1
255.62
312.01
247.56
331.95
313.16
277.01
355.91
370.99
378.21
345.66
385.26
421.12
375.52
421.36
369.28
438.25
460.25
451.74
393.22
396.67
454.24
484.01
487.76
465.01
446.3
472.51
472.44
494.64
499.91
479.73
496.18
447.85
498.9
538.6
478.32
536.73
503.46
532.91
532.45
510
483.79
454.89
511.82
474.39
472.8
495.89
499.71
427.84
477.08
457.44
490.7
396.79
479.95
403
456.41
373.49
413.68
433.1
341.31
407.27
377.13
309.49
365.22
309.64
312.34
342.64
270.62
237.91
241.02
210.37
223.55
243.02
216.51
175.99
190.32
148.03
160.68
160.03
120.71
81.4
82.64
100.81
27.85
21.2
83.95
-19.3
23.49
27.56
-42.43
-17.46
-73.03
-45.09
-92.54
-93.81
-153.66
-151.25
-113.86
-179.93
-166.9
-202.65
-220.3
-212.63
-258.98
-242.31
-288.4
-257.3
-277.03
-251.73
1243.76
-289.48
-297.53
-317.65
-320.46
-360.6
-329.84
-359.03
-411.59
-440.17
-429.85
-430.76
-402.48
-442.48
-395.78
-471.15
-497.39
-492.38
-499.07
-429.46
-488.19
-512.18
-491.67
-461.01
-515.41
-484.64
-477.95
-464.57
-546.53
-529.04
-526.05
-500.65
-538.02
-509.73
-523.34
-451.17
-491.03
-534.51
-461.73
-478.68
-478.52
-519.32
-427.89
-426.35
-414.96
-414.02
-436.72
-420.21
-436.72
-386.41
-433.69
-391.61
-359.71
-422.44
-338.57
-412.59
-340.56
-362.51
-304.65
-283.61
-288.06
-273.91
-266.97
-321.51
-224.59
-290.98
-273.7
-183.72
-222.99
-230.52
-174.32
-181.66
-136.02
-132.21
-103.42
-104.32
-75.34
-89.66
-29.2
-59.98
-35.12
12.21
-40.12
-17.32
23.75
51.37
82.71
36.3
77.73
40.27
148.73
94.69
173.87
110.89
185.66
171.14
184.83
231.25
203.36
244.61
215.92
285.44
278.36
319.3
287.46
343.1
330.92
295.65
312.46
312.48
331.08
366.89
430.32
408.45
438.41
369.82
468.31
469.41
441.7
426.48
470.22
481.48
486.16
484.31
506.66
428.75
470.56
478.82
505.19
509.53
527.79
460.56
514.95
547.67
507.97
542.41
454.95
473.96
458.22
518.95
474.53
475.64
451.86
447.81
513.61
517.78
423.95
446.19
415.5
480.48
477.43
435.13
386.61
446.85
373.88
362.82
438.13
348.7
401.95
388.83
408.79
399.65
359.02
340.24
340.83
328.17
253.22
1834.45
313.26
298.84
219.05
235.64
234.51
228.07
168.75
179.72
130.2
125.96
115.68
126.27
59.04
68.13
30.07
92.42
17.76
9.96
-15.56
-25.5
-9.15
7.49
-60.25
-45.04
-91.47
-119.23
-147.01
-139.2
-129.9
-120.73
-183.87
-221.61
-161.96
-248.88
-220.79
-268.69
-230.31
-219.54
-235.31
-300.08
-298.93
-323.76
-349.69
-325.51
-357.8
-396.4
-324.24
-325.92
-413.04
-389.75
-376.14
-367.46
-463.37
-411.35
-432.41
-436.7
-404.87
-500.08
-479.44
-460.79
-513.82
-472.02
-462.69
-499.59
-457.9
-502.47
-453.14
-463.36
-517.61
-489.69
-503.6
-493.1
-532.41
-485.68
-484.53
-543.27
-499.66
-484.53
-482.83
-509.77
-479.16
-448.21
-467.69
-516.85
-495.62
-411.04
-422.15
-407.91
-447.62
-455.81
-383.16
-434.28
-375.07
-437.68
-398.7
-339.19
-342.12
-371.62
-316.72
-295.34
-286.34
-267.38
-340.05
-263.93
-307.32
-257.42
-207.55
-279.29
-222.59
-188.65
-223.31
-209.65
-152.52
-170.58
-146.07
-87.38
-106.39
-92.39
-126.75
-50.7
-58.84
-48.72
-47.18
11.29
-34.88
5.97
19.4
58.14
24.6
83.84
70.78
86.55
131.71
168.02
175.63
168.99
148.9
223.24
255.74
222.73
263.15
289.83
229.81
237.75
242.8
303.3
295.22
287.46
291.6
378.32
349.31
374.47
378.39
353.43
368.68
379.12
441.64
394.41
453.6
454.56
459.93
426.93
434.75
443.82
437.32
443.49
454.41
447.42
449.23
502.97
474.54
497.2
546.97
476.87
527.5
487.79
474.99
517.84
495.24
460.28
503.34
446.33
497.9
497.59
522.72
503.69
512.41
448.87
498.56
446.05
476
473.73
484.22
421.91
445.13
416.44
407.21
442.53
413.39
402.37
375.81
316.95
314.61
299.35
293.46
346.39
276.28
315.79
318.56
249.67
215.5
263.61
179.18
189.87
198.7
223.71
216.38
202.61
155.52
167.7
64.45
50.43
89.73
81.13
101.67
42.82
-13.19
12.44
-29.35
19.78
-3.12
-71.47
-53.09
-121.49
-83.31
-157.12
-110.44
-111.98
-171.46
-169.22
-195.87
-229.11
-187.68
-178.81
-280.23
-231.16
-269.08
-295.96
-298.98
-304.18
-276.59
-330.17
-345.34
-307.42
-372.89
-344.89
-352.61
-366.32
-365.04
-447.39
-427.71
-433.78
-480.43
-472.35
-435.47
-477.35
-432.91
-448.77
-472.63
-459.28
-521.54
-515.08
-448.56
-475.31
-483.93
-534.1
-515.82
-517.5
-486.82
-531.12
-515.39
-489.93
-546.11
-536.65
-458.84
-539.74
-458.28
-520.76
-454.88
-434.52
-466.2
-440.18
-434.56
-440.58
-415.01
-424.85
-437.56
-475.8
-446.42
-442.33
-436.38
-364.65
-409.31
-334.73
-330.95
-402.05
-357.77
-372.17
-327.28
-284.79
-264.54
-341.82
-238.79
-286.85
-240.29
-264.97
-195.11
-178.01
-217.52
-178.65
-194.86
-108.43
-123.53
-164.89
-90.44
-111.53
-67.56
-84.46
-67.11
-71.97
-13.41
25.01
1532.45
27.72
51.44
25.97
92.39
33.49
141.72
82.44
152.66
158
169.31
140.8
192.85
222.64
214.39
198.32
265.22
225.72
229.13
247.17
337.47
274.13
347.1
321.43
319.72
369.25
340.23
406.65
330.81
345.27
386.63
439.73
386.26
469.88
403.97
484.92
406.39
433.5
426.32
499.62
431.5
522
473.64
522.27
442.4
445.25
491
481.4
524.97
480.61
460.45
524.02
523.23
456.36
499.04
526.08
530.56
463.48
500.71
456.29
443.34
503.13
455.34
495.95
429.67
480.9
420.69
401.75
457.14
438.03
431.27
371.09
435.91
440.31
405.07
380.57
348.57
346.77
318.67
313.91
282.51
365.59
316.27
301.69
311.6
303.61
221.51
211.3
224.85
233.39
243.68
177.65
210.88
116.3
129.33
143.43
77.47
111.6
82.21
57.38
102.8
75.1
11.22
-11.61
10.03
-8.38
-43.12
-78.5
-43.17
-69.86
-110
-155.03
-91.56
-113.02
-110.17
-121
-153.61
-216.09
-241.11
-208.23
-259.04
-262.16
-261.16
-241.96
-247.55
-339.5
-267.6
-323.8
-314.79
-370.63
-345.91
-353.95
-383.55
-429.88
-356.35
-444.8
-365.5
-405.84
-395.05
-459.15
-492.35
-486.82
-486.04
-472.86
-438.83
-504.14
-476.06
-483.04
-471.08
-461.57
-502.2
-530.47
-487.42
-484.17
-523.37
-506.59
-507.78
-536.22
-513.35
-521.57
-522.83
-517.48
-447.39
-447.16
-443.56
-528.43
-488.98
1027.72
-442.97
-439.89
-492.19
-481.13
-394.76
-397.95
-463.01
-402.47
-423.98
-361.66
-359.56
-372.19
-401.78
-396.41
-304.65
-349.44
-343.36
-335.92
-274.64
-249.6
-301.99
-298.68
-214.96
-225.41
-266.79
-253.39
-170.03
-212.97
-217.69
-183.95
-153.27
-170.35
-142.01
-79.77
-43.23
-72.26
-32.42
-7.86
-25.14
-45.56
-0.51
12
53.78
54.29
102.94
38.2
133.6
85.49
79.91
179.41
174.57
202.54
134.77
223.73
224.62
174.5
229.07
269.52
290.22
228.58
288.28
289.34
310.85
326.91
312.21
369.66
338.83
349.17
362.23
410.9
408.92
426.41
385.49
403.6
413.29
427.58
416.59
463.65
445.62
471.25
513.67
504.57
513.82
435.82
448.42
476.32
480.84
476.85
518.34
462.15
455.87
524.06
529.15
523.19
498.68
452.47
517.7
448.26
449.57
452.55
515.43
518.72
493.12
475.26
489.97
486.42
444.29
492.37
460.68
476.4
471.58
405.21
371.76
435.82
423.74
349.7
332.82
345.2
324.67
303.86
291.83
311.57
307.67
282.57
260.24
243.15
302.43
285.46
198.53
245.31
227.48
225.6
196.13
174.83
179.02
108.17
89.54
78.45
133.95
83.09
103.46
86.74
79.4
-22.77
50.77
3.26
6.16
-34.78
-39.81
-89.33
-112.51
-96.99
-127.63
-164.66
-176.63
-147.92
-169.72
-145.96
-166.67
-262.76
-245.24
-292.55
-231.63
-297.43
-258.89
-279.47
-347.44
-274.79
-356.31
-315.08
-306.02
-325.77
-406.75
-385.89
-418.1
-434.81
-416.8
-401.75
-400.43
-447.41
-476.74
-487.44
-420.3
-423.36
-480.31
-427.92
-473.48
-513.37
-502.04
-525.01
-455.4
-480.8
-494.31
-468.21
-488
-515.56
-457.03
-500.8
-517.33
-464.46
-467.38
-490.75
-475.39
-470.06
-531.49
-482.64
-479.07
-452.26
-432.94
-448.92
-439.15
-486.56
-491.25
-414.38
-439.62
-387.25
-366.42
-439.99
-414.23
-395.08
-364.77
-378.62
-395.97
-318.44
-322.12
-320.15
-269.68
-261.34
-290.41
-238.27
-269.61
-264.14
-188.46
-256.2
-162.66
-206.46
-142.28
-135.88
-126.16
-128.39
-136.02
-118.47
-103.91
-113.92
-54.96
-96.04
4.45
11.39
-34.06
-16.34
-8.21
81.63
48.62
77.46
112.96
85.28
140.45
103.36
104.85
157.43
214.09
177.9
163.04
236
242.53
238.13
245.78
258.69
254.9
309.1
305.02
319.11
312.86
308.42
380.74
406.14
394.6
397.62
395.58
366.02
445.1
416.1
405.77
453.59
393.83
431.99
501.95
438.91
437.95
420.7
439.29
491.2
500.89
526.08
484.5
493.1
538.33
456.36
488.71
474.07
481.75
463.64
463.22
528.74
514.43
504.53
511.59
487.51
525.34
533.26
439.93
486.83
491.08
494.28
453.58
478.12
462.11
483.24
423.71
390.92
433.19
419.75
434.33
377.39
361.06
390.54
341.1
298.98
374.72
333.45
305.43
341.96
1753.33
310.5
286.65
224.59
250.39
202.38
170.6
185.31
180.68
176.07
158.8
152.75
151.88
71.65
105.43
38.97
80.08
18.73
67.22
8.05
21.56
-32.94
3.91
-72.18
-83.91
-83.94
-80.2
-76.62
-89.63
-145.14
-119.39
-167.13
-159.96
-160.8
-154.07
-183.59
-183.74
-273.15
-292.88
-304
-259.06
-290.64
-281.53
-303.18
-294.68
-332.17
-334.69
-363.06
-365.58
-379.65
-437.4
-410.4
-407.82
-430.88
-425.52
-393.22
-474.62
-427.67
-499.5
-409.23
-416.65
-422.47
-496.69
-457.45
-496.9
-444.59
-449.43
-521.11
-541.24
-538.6
-543.66
-455.57
-516.94
-463.14
-497.75
-518.66
-519.68
-469.82
-495.59
-464.36
-530.7
-483.59
-453.91
-456.16
-462.57
-503.2
-426.97
-444.95
-432.53
-432.05
-412.53
-403.86
-408.97
-382.7
-425.74
-400
-408.4
-379.4
-383.96
-378.38
-292.28
-370
-342.28
-346.58
-284.43
-323.23
-236.22
-246.88
-288.7
-179.35
-247.92
-205
-210.82
-130.18
-114.6
-97.8
-173.67
-67.98
-81.88
-42.14
-108.93
-97.52
-46.99
-57.65
-54.08
-1.68
-14.83
8.55
55.66
34.11
43.45
68.72
82.94
115.04
130.59
202.4
215.26
212.37
238.48
170.05
179.63
219.51
298.06
252.23
238.27
239.59
264.03
288.37
348.71
376.78
304.16
400.57
381.17
334.87
404.11
428.08
430.06
452.15
463.61
386.39
430.01
437.17
402.73
487.07
431.2
502.84
502.14
1984.83
512.66
454.08
514.96
488.32
481.11
494.84
483.19
479.77
503.53
470.18
517.67
512.95
500.34
508.5
523.21
511.03
516.77
531.59
440.53
442.35
462.71
454.3
500.65
488.74
447.66
484.06
457.6
394.29
421.17
431.18
400.65
422.45
394.37
377.84
364.97
318.39
381.65
346.2
337.27
347.38
257.95
330.37
222.55
213.04
196.64
241.46
236.83
225.47
191.7
141.51
168.23
159.71
86.01
98.43
66.85
64.63
89.46
41.86
12.35
45.53
43.26
-29.59
-43.67
-46.18
-16.74
-24.53
-123.1
-142.23
-152.76
-155.53
-89.41
-115.84
-148.83
-169.38
-243.23
-164.04
-231.6
-213.34
-290.81
-257.82
-253.56
-235.82
-317.13
-293.06
-290.78
-310.99
-297.3
-336.57
-383.96
-385.25
-401.8
-381.42
-439.94
-408.67
-464.17
-471.55
-422.73
-405.58
-488.43
-430.85
-446.6
-485.85
-495.25
-510.79
-465.82
-486.45
-480.6
-525.89
-521.07
-508.67
-502.54
-460.04
-497.93
-534.41
-460.91
-481.07
-546.88
-515.23
-489.91
-492.36
-538.46
-465.03
-484.17
-458.32
-469.88
-438.97
-476.67
-449.51
-491.26
-442.89
-446.57
-470.69
-410.04
-416.45
-357.01
-390.4
-344.79
-418.84
-342.07
-401.08
-336.35
-313.15
-367.86
-333.66
-340.09
-292.52
-231.81
-216.32
-284.83
-225.64
-264.35
-247.27
-169.97
-183.91
-178.6
-191.81
-164.13
-130.41
-111.48
-112.81
-102.95
-46.84
3.28
15.12
2.42
-21.35
-26.94
15.72
5.12
51.06
80.4
42.7
57.53
117.57
110.37
136.74
186.63
178.7
151.11
201.28
202.36
253.2
293.36
274.77
270.71
256.64
267.69
274.42
307.08
290.82
382.92
387.01
370.5
335.58
364.84
398.59
363.05
406.73
460.23
440.19
420.15
433.07
423.87
465.76
444.03
458.71
460.53
514.05
474.01
462.91
530.34
478.53
479.29
472.47
449.64
519.56
484.52
506.71
501.99
478.86
448.47
480.76
496.82
451.78
527.05
501.82
457.61
520.5
504.97
504.71
461.12
501.13
437.02
426.7
446.92
407.47
380.54
443.76
436.46
420.92
370.94
348.55
336.97
398.59
389.43
379.49
281.36
294.62
334.18
301.88
257.65
221.37
290.05
218.38
233.75
244.52
152.3
177.43
136.82
162.71
159.53
82.95
85.56
121.87
36.1
26.68
84.7
68.77
9.25
-30.15
12.7
12.84
-49.57
-78.18
-47.48
-42.24
-91.03
-126.97
-159.06
-112.51
-198.65
-151.92
-200.59
-191.88
-185.64
-232.88
-273.61
-284.97
-312.26
-308
-311.62
-261.14
-271.49
-303.4
-329.39
-382.55
-354.74
-326.04
-385.21
-372.98
-392.16
-399.49
-379.21
-458.91
-413.19
-449.27
-434.03
-405.53
-461.5
-446.69
-498.9
-460.27
-529.46
-455.23
-501.04
-518.27
-512.93
-452.75
-525.58
-539.41
-522.48
-466.68
-507.76
-541.62
-460.24
-527.12
-459.22
-472.4
-534.36
-533.54
-497.9
-431.99
1027.62
-510.05
-497.05
-441.2
-404.4
-428.47
-395.27
-389.75
-471.21
-408.64
-358.25
-443.27
-393.14
-367.36
-331.47
-365.5
-393.72
-353.16
-331.83
-309.26
-320.79
-295.31
-292.75
-248.47
-253.29
-193.4
-239.55
-212.14
-193.98
-215.14
-186.23
-106.87
-187.88
-144.94
-111.74
-68.66
-100.28
-102.8
-74.03
-53.06
12.94
-34.29
-0.06
55.84
29.37
52.17
111.73
109.76
113.49
71.72
88.42
152.65
117.7
197.29
231.29
152.13
192.94
229.32
253.53
302.09
286.97
251.69
305.5
316.88
278.66
330.96
358.13
316.38
326.39
379.12
395.8
395.07
434.39
386.36
442.72
414.15
441.46
482.02
404.91
430.74
435.45
423.95
432.2
501.75
508.92
477.99
495.6
538.27
537.82
496.68
466.48
511.17
504.1
506.95
468.19
537.02
512.33
523.41
517.09
494.4
535.13
501.74
525.57
466.04
452.94
442.99
503.96
496.08
403.89
399.18
450.41
414.83
470.51
421.51
360.17
400.49
349.38
425.46
411.72
312.66
331.87
289.63
367.46
337.96
301.46
299.06
282.42
261.3
215.5
274.2
251.7
220.02
174.4
153.84
134.61
151.46
146.85
137.32
127.7
109.09
60.27
49.93
64.39
18.32
10.47
-19.07
-46.53
17.1
-65.97
-9.74
-27.74
-113.69
-51.56
-67.8
-136.82
-186.62
-152.96
-133.59
-210.86
-219.75
-260.44
-202.45
-238.27
-275.39
-240.13
-310.69
-315.68
1232.54
-330.9
-328.42
-363.48
-391.67
-369.01
-415.68
-365.62
-396.71
-380.75
-388.78
-396.26
-392.87
-416.05
-398.38
-481.61
-477.4
-471.31
-509.19
-459.51
-506.65
-518.91
-445.64
-494.31
-465.96
-486.3
-534.93
-458.88
-546
-516.83
-476.84
-459.35
-544.13
-501.71
-449.8
-466.44
-486.84
-440.69
-474.24
-492.49
-471.19
-448.37
-425.23
-505.42
-415.65
-463.28
-495.1
-484.36
-456.15
-438.76
-370.83
-421.13
-428.63
-374.95
-331.28
-378.92
-397.27
-382.83
-349.2
-295.84
-279.72
-290.99
-301.28
-290.62
-241.76
-208.25
-266.3
-274.32
-231.9
-159.53
-169.7
-163.46
-171.7
-120.09
-82.27
-138.61
-119.89
-73.82
-57.85
-17.9
-65.59
-44.46
25.09
-42.16
23.14
41.22
26.52
22.93
57.09
139.59
157.71
152.47
104.43
199.06
145.47
225.65
176.9
189.26
269.7
275.32
261.15
307.65
254.69
321.3
288.76
264.82
365.42
345.99
301.01
314.42
411.59
404.12
435.16
412.97
376.38
450.23
375.42
399.82
399.01
480.5
454.69
443.73
483.27
431.28
434.04
455.46
474.09
462
470.97
463.13
504.29
492.16
519.99
523.99
463.48
492.92
532.58
508.59
511.25
448.34
530.42
496.22
486.97
513.36
432.12
513.27
437.09
508.53
485.77
468.17
494.6
485.32
471.93
441.83
451
359.75
393.57
369.24
410.9
417.64
372.82
368.63
358.41
357.34
345.36
263.5
271.77
283.01
304.36
278.39
209.83
203.52
252.99
242.11
160.83
204.49
111.2
169.93
130.68
128.02
137.23
54.53
79.69
64.66
17.57
20.7
-5.22
-38.06
-4.39
16.38
-9.59
-26.16
-93.92
-60.15
-81.46
-112.68
-105
-123.62
-195.91
-142.3
-220.76
-196.72
-177.67
-191.73
-287.82
-262.97
-264.62
-327.89
-292.83
-301.75
-312.59
-335.73
-348.65
-359.26
-346
-368.08
-373.54
-399.65
-384.09
-459.2
-441.62
-417.88
-466.19
-463.24
-429.99
-482.18
-474.21
-504.35
-486.19
-462.77
-477.17
-464.57
-462.33
-524.05
-528.2
-532.03
-511.81
-471.32
-476.05
-509.52
-467.72
-503.24
-518.84
-463.89
-536.39
-451.79
-458.97
-480.85
-460.67
-509.55
-476.17
-471.84
-472.71
-488.52
-402.33
-477.45
-429.32
-408.62
-422.1
-443.69
-436.44
-402.95
-363.83
-355.86
-321.48
-401.36
-381.16
-344.08
-330.5
-324.69
-331.11
-276.61
-314.67
-247.09
-202.36
-187.53
-225.23
-193.66
-162.91
-212.5
-167.76
-144.28
-98.25
-159.01
-106.07
-91.08
-120.6
-67.05
-3.4
-71.24
-14.26
19.61
2.59
44.12
80.45
99.09
42.22
128.36
74.92
120.9
140.54
141.8
185.53
215.25
212.64
178.21
226.51
254.75
255.97
208.44
242.33
295.71
260.46
316.48
320.68
329.12
374.29
383.4
332.42
401.26
390.87
425.48
404.69
408.56
429.95
460.03
434.05
396.47
473.15
449.14
462.46
448.03
483.08
1999.12
499.1
492.77
440.25
503.75
499.03
513.19
490.17
469.21
459.28
545.04
466.97
474.63
516
527.26
515.34
486.1
455.11
514.38
436.42
502.54
476.25
509.94
475.92
463.1
484.99
437.43
439.31
393.84
416.17
419.55
371.68
439.68
376.55
380.54
357.14
352.47
314.07
375.9
318.08
330.56
323.49
283.3
248.58
216.11
245.82
213.76
259.19
212.33
229.83
223.03
189.55
113.75
109.2
72.27
75.95
50.67
111.88
76.41
11.8
-10.59
-15.55
-26.69
4.6
-71.67
-39.77
-31.36
-111.21
-96.78
-73.81
-154.65
-111.12
-163.1
-166.23
-155.11
-186.36
-231.06
-168.21
-232.76
-233.86
-208.84
-308.46
-239.41
-313.78
-278.61
-307.56
-297.35
-321.86
-351.44
-411.26
-333.69
-364.13
-409.02
-405.27
-383.07
-448.39
-427.89
-419.01
-470.68
-473.19
-471.99
-477.34
-504.83
-473.85
-457.64
-496.19
-534.4
-473.93
-457.95
-533.54
-542.12
-523.53
-514.73
-510.42
-460.67
-480.84
-470.18
-475
-535.2
-464.98
-461.96
-470.61
-454.78
-501.73
-527.44
-452.81
-446.16
-450.9
-490.01
-462.79
-414.13
-406.71
-424.92
-412.14
-454.46
-408.71
-383.79
-344.31
-373.76
-327.98
-402.89
-375.89
-358.86
-324.22
-325.83
-299.71
-319.4
-272.65
-222.24
-275.35
-196.42
-260.94
-214.03
-169.21
-175.73
-178.42
-157.37
-117.36
-119.69
-65.96
-68.94
-109.79
-39.46
-64.73
13.3
-60.44
-35.43
1470.41
23.97
-2.37
43.77
102.97
48.06
71.12
105.79
109.8
157.65
118.03
203.11
197.19
228.65
200.73
195.74
250.86
254.67
309.41
323.45
268.46
319.59
341.73
361.5
306.59
341.32
344.13
322.44
412.57
370.12
413.53
363.84
367.99
433.48
423.6
475.9
443.99
410.42
470.48
443.59
475.4
515.09
463.87
444.75
523.76
457.76
453.56
482.83
467.1
497.92
544.21
459.47
467.87
542.38
506.73
501.98
504.65
489.2
454.48
492.61
506.88
498.08
514.81
480.98
419.19
449.25
429.61
474.09
475.42
461.76
431.82
385.07
390.12
355.79
344.32
412.12
323.49
314.65
325.67
302.68
341.85
322.96
295.11
246.43
278.99
289.24
255.1
204.98
254.88
235.91
162.17
143.17
126.46
152.25
105.06
126.67
117.4
107
55.38
102.44
51.51
-1.63
-11.24
36.13
31.52
-17.8
-79.84
-82.51
-103.92
-89.39
-76.24
-160.44
-127.88
-132.97
-205.38
-127.81
-233.61
-244.29
-248.91
-269.96
-211.04
-290.88
-268.33
-258.6
-254.2
-309.21
-333.53
-373.18
-328.91
-299.51
-377.22
-345.75
-397.76
-367.26
-392.84
-369.33
-397.42
-401.04
-458.49
-423.67
-414.94
-451.27
-438.72
-486.46
-516.55
-522.12
-481.26
-522.21
-516.76
-503.74
-487.09
-538.78
-482.1
-494.17
-490.67
-475.17
-454.3
-481.01
-491.2
-543.54
-504.79
-530.32
-492.43
-481.61
-452.65
-439.43
-496.87
-457.67
-442.65
-428.45
-476.34
-478.97
-477.97
-447.85
-470.6
-376.02
-394.4
-440.36
-367.44
-413.37
-339.4
-350.75
-316.69
-373.36
-337.72
-365.74
-331.36
-278.58
-267.4
-219.23
-244.73
-227.68
-266.27
-245.54
-168.72
-210.84
-159.91
-137.58
-162.76
-110.09
-155.1
-86.86
-62.7
-52.05
-79.8
-56.75
-50.66
-8.53
-9.1
50.23
35.15
81.3
20.22
114.44
115.1
131.63
170.64
126.05
144.03
186.39
205.11
174.45
209.38
267.78
232.27
274
296.14
306.87
337
283.52
313.06
321.17
357.88
356.79
326.38
330.65
353.14
415.59
375.27
389.59
458.53
376.98
470.94
423.16
472.63
496.73
415.02
483.68
477.38
475.88
517.61
506.55
523.67
444.56
470.19
463.43
546.55
520.53
529.36
483.06
536.93
539.32
479.73
541.12
473.8
540.43
479.51
489.98
469.27
514.59
477.21
475.13
451.99
416.96
492.48
403.42
409.97
479.38
423.76
419.39
397.22
421.13
352.61
408.61
408.59
343.96
310.58
377.1
281.49
346.25
294.49
265.14
233.47
315.5
294.17
270.19
226.09
181.23
202.51
213.13
138.92
124.98
123.29
87.61
126.06
136.01
80.65
85.58
26.07
66
35.79
23.97
-25.06
-40.15
-77.1
-9.71
-107.85
-72.83
-118.51
-114.51
-72.94
-142.46
-147.27
-184.41
-171.1
-187.28
-224.57
-269.18
-219.77
-275
-226.54
-241.13
-249.31
1153.93
-322.65
-289.93
-283.25
-321.79
-368.49
-343.17
-376.99
-342.69
-426.04
-436.01
-449.8
-431.7
-459.81
-390.38
-421.17
-465.58
-463.69
-479.75
-443.68
-511.82
-470.65
-448.48
-452.22
-470.54
-481.48
-445.39
-524.63
-526.6
-548.34
-457.81
-460.05
-470.84
-478.37
-463.86
-450.41
-536.73
-538.03
-520.3
-531.28
-464.24
-508.55
-450.95
-468.93
-497.79
-422.42
-461.88
-425.48
-459.62
-400.33
-405.75
-396.76
-443.16
-346.37
-358.92
-412.75
-318.94
-395.03
-365.84
-311.33
-348.17
-303.25
-335.73
-287.54
-260.56
-288.73
-211.31
-261.81
-227.91
-234.54
-194.54
-134.77
-127.68
-172.53
-108.47
-128.06
-88.85
-128.72
-51.71
-93.48
-47.73
-70.74
-36.42
10.73
62.57
20.36
41.76
52.86
34.16
58.75
122.11
163.94
168.32
131.22
138.63
188.14
227.45
180.59
215.75
235.01
293.14
276.06
225.15
327.35
297.15
340.09
293.78
346.82
386.15
375.88
407.07
351.74
346.16
434.14
426.2
400.94
384.16
429.31
480.68
468.28
425.13
456.23
505.94
472.02
483.91
517.54
499
518.23
520.19
523.21
483.41
497.55
530.65
476.79
483.56
474.89
473.62
511.7
508.08
474.91
474.14
495.94
523.9
522.77
479.95
447.66
488.48
418.3
469.2
480.69
433.33
444.16
467.6
412.75
457.83
450.48
447.77
377.01
395.04
394.19
356.21
373.07
387.27
353.33
278.33
274.25
344.1
1805.29
239.57
304.77
258.29
281.81
180.09
205.08
213.97
229.31
145.23
191.63
111.86
136.93
111.55
56.6
30.18
46.62
14.59
37.55
23.87
-23.84
1.64
-58.22
-82.87
-34.44
-104.69
-40.31
-106.22
-104.63
-103.7
-175.06
-160.81
-218.51
-176.98
-165.15
-265.12
-275.15
-276.82
-288.01
-234.83
-315.81
-276.14
-304.02
-300.34
-368.47
-309.09
-375.27
-394.26
-362.72
-404.5
-348.06
-402.81
-402.01
-450.2
-437.8
-460.89
-441.13
-408.14
-407.67
-415.34
-479.29
-468.06
-438.36
-515.31
-485.07
-530.78
-490.04
-506.37
-467.96
-464.29
-523.52
-455.96
-457.85
-486.25
-478
-457.5
-541.48
-472.56
-479.56
-472.87
-521.99
-502.58
-524.19
-486.2
-490.23
-426.28
-458.84
-466.11
-414.6
-425
-415.11
-393.24
-438.92
-432.42
-416.11
-431.85
-373.8
-319.5
-337.87
-390.34
-298.86
-295.42
-302.24
-313.4
-316.79
-245.58
-260.67
-288.62
-261.92
-233.47
-256.04
-205.19
-189.89
-183.55
-194.52
-167.89
-155.85
-86.71
-124.49
-68.09
-38.1
-63.69
-83.66
8.86
-4.45
1.32
1.93
31.25
68.25
95.46
115.29
94.72
140.97
156.36
155.35
136.52
166.2
160.95
150.45
257.66
192.86
251.91
283.74
233.29
327.14
280.03
296.29
321.64
332.05
322.65
333.91
329.53
343.32
333.05
378.08
372.67
363.01
390.96
377.47
413.94
419.79
407.8
496.94
490.64
481.86
459.69
479.37
480.12
440.23
447.41
537.5
522.03
505.44
531.04
538.87
504.17
505.01
504.47
535.04
501.06
503.87
447.26
497.08
479.3
475.72
514.87
435.18
432.56
435.97
422.4
496.02
435.97
408.65
447.72
473.45
376.66
456.75
356.94
368.21
360.61
414.32
415.83
335.66
363.7
305.47
338.67
278.61
308.8
314.49
235.83
288.07
256.27
223.86
257.39
211.18
223.21
203.68
137.67
180.96
169.93
109.32
154.27
59.17
68.36
99.29
29.3
86.57
-18.72
-26.37
-9.62
-35.45
-27.51
-96.33
-67.92
-101.69
-87.82
-135.72
-146.71
-170.49
-183.33
-205.03
-155.33
-222.48
-181.44
-234.8
-195.22
-249.95
-250.77
-274.45
-250.65
-303.05
-276.61
-360.49
-356.66
-387.85
-373.61
-325.74
-363.24
-348.22
-394.51
-412.62
-447.97
-375.9
-460.97
-448.23
-491.5
-427.17
-449.59
-474.76
-422.01
-523.49
-526.22
-435.09
-492.55
-488.92
-490.12
-531.62
-490.51
-514.59
-549.02
-457.12
-476.9
-466.6
-532.01
-464.06
-466.09
-458.06
-510.57
-473.81
-527.49
-481.25
-503.63
-427.51
-437.11
-447.68
-412.73
-457.69
-397.71
-408.06
-407.11
-427.88
-370.71
-391.22
-405.65
-421.68
-365.4
-350
-331.6
-297.79
-321.83
-279.17
-332.28
-274.33
-239.94
-267.05
-274.58
-240.88
-268.58
-198.33
-216.84
-220.99
-208.3
-175.23
-184.74
-152.37
-137.71
-79.73
-69.44
-26.72
-39.43
1.31
18.96
-50.97
1479.59
-23.64
47.21
78.37
36.41
106.03
130.74
151.12
117.43
99.89
184.23
189.92
215.3
190.74
189.56
271.69
246.14
243.48
281.64
308.78
328.37
305.61
338.01
322.59
357.6
321.31
401.14
397.35
402.2
428.72
379.26
375.63
387.68
400.82
438.31
394.75
419.73
445.66
491.94
449.73
494.21
515.37
474.28
494.25
489.47
519.89
534.67
532.05
506.65
469.51
510.78
533.28
487.66
528.39
486.44
491.57
493.43
501.06
522.87
441.45
462.07
522.58
436.75
509.53
458.65
481.81
442.34
424.37
435.18
476.7
413.8
387.47
418.15
385.86
345.21
354.36
347.99
401.5
363.61
363.2
311.28
321.77
329.79
298.45
320.76
231.01
304.65
211.37
198.91
256.26
224.82
235.33
214.8
112.69
195.27
98.84
152.63
68.57
60.23
72.3
84.11
10.17
9.2
-6.36
-33.58
22.07
9.29
-30.89
-47.18
-61.98
-128.28
-109.12
-150.08
-110.02
-181.58
-167.31
-208.63
-143.6
-166.59
-202.09
-203.45
-262.82
-219.48
-262.24
-252.86
-254.45
-265.14
-295.42
-363.77
-323.64
-359.06
-375.17
-422.35
-371.03
-444.06
-366.1
-380.63
-443.82
-458.97
-401.47
-442.08
-472.73
-503.31
-457.42
-469.64
-512.46
-437.74
-503.11
-476.89
-502.1
-536.56
-523.09
-524.7
-527.18
-531.55
-454.48
-450.21
-455.01
-513.65
-505.95
-455.5
-510.99
-453.02
-536.68
-440.54
-518.42
-482.08
1002.08
-481.06
-435.82
-453.36
-485.43
-438.81
-472.46
-406.62
-437.44
-395.46
-373.87
-362.18
-350.08
-325.62
-338.1
-396.25
-340.02
-301.27
-289.14
-268.37
-289.05
-253.8
-260.6
-303.16
-228.72
-209.48
-230.18
-205.6
-230.29
-151.35
-201.26
-112.39
-132.03
-164.88
-143.22
-124.26
-100.21
-94.3
-78.78
-73.45
-47.26
46.43
26.4
46.13
28.52
68.93
65.04
40.1
84.69
73.89
126.89
112.23
134.59
144.07
193.88
208.96
268.41
218.5
253.12
265.46
238.78
323.34
313.9
351.05
322.4
291.66
364.78
312.91
335.46
371.95
385.57
442.88
388.54
394.34
370.74
421.72
411.1
436.59
491.05
463.38
425.73
502.49
495.33
519.08
476.47
456.23
523.3
535.2
513.21
469.72
488.66
501.63
498.89
466.56
453.79
459.15
497.21
530.95
477.62
470.48
441.17
443.45
523.72
522.75
449.74
453.23
438.32
464.61
493.46
490
413.65
383.07
438.63
396.17
379.25
369.15
403.93
362.46
320.9
327.7
364.56
358.06
326.02
263.87
304.78
246.98
273.09
281.29
200.41
263.3
260.59
174.68
221.6
148.63
207.42
123.31
160.62
131.88
96.2
56.55
45.97
101.86
23.5
77.87
34.56
-17.78
-28.18
-56.89
-69.21
-19.33
-116.83
-48.78
-72.51
-143.18
-122.9
-120.24
-160.09
-161.38
-167.15
-165.77
-255.35
-278.85
-246.71
-234.8
-275.68
-326.53
-309.62
-330.9
-349.88
-318.63
-336.36
-345.26
-317.05
-376.71
-421.92
-421.23
-421.79
-425.63
-464.29
-424.27
-459.41
-455.99
-492.49
-437.24
-429.63
-448.14
-471.16
-453.97
-459.98
-440.44
-521.65
-532.13
-506.92
-503.49
-496.74
-487.68
-475.18
-527.69
-473.67
-476.99
-488.28
-535.98
-458.09
-463.4
-515.42
-488.55
-436.52
-509.26
-518.23
-490.98
-482.12
-469
-481.88
-450.92
-451.97
-464.78
-426.72
-417.97
-389.22
-362.76
-385.98
-420.36
-366.94
-356.74
-367.82
-330.18
-312.27
-275.53
-338.67
-311.12
-255.66
-218.24
-257.87
-256.62
-249.29
-162.57
-148.91
-179.46
-174.93
-130.67
-93
-74.51
-128.05
-53.93
-33.92
-60.63
-30.09
-22.99
-13.85
-36.07
-17.21
68.84
37.85
73.95
90.93
37.81
97.51
134.5
131.65
150.83
170.73
171.49
226.31
226.39
202.11
183.35
197.85
268.92
300.85
251.42
256.16
328.64
350.94
343.03
293.24
396.82
387.55
384.97
356.49
437.07
426.47
375.92
440.73
400.64
435.36
460.61
495.09
463.15
445.81
436.54
450.73
508.19
452.12
461.99
471.11
480.42
518.93
496.21
467.62
548.27
515.42
497.76
513.02
505.19
517.95
462.2
463.49
472.42
528.88
448.26
510.11
489.4
461.59
426.92
495.87
483.37
454.94
474.21
449.76
437.09
468.21
450.08
362.74
374.08
345.53
421.16
319.88
366.25
330.67
369.64
326.15
298.94
280.45
1748.69
230.58
234.65
256.36
206.67
265.5
182.69
172.07
187.79
121.97
124.59
136.4
151.28
109.55
117.28
60.15
50.34
18.53
33.85
0.97
-36.42
31.52
-22.74
-64.86
-4.28
-55.78
-97.23
-84.83
-91.81
-138.8
-109.71
-205.33
-129.14
-162.24
-246.82
-197.25
-177.4
-233
-266.42
-231.31
-264.06
-248.74
-346.83
-331.76
-352.11
-377.75
-393.79
-381.93
-361.08
-425.57
-348.25
-389.67
-362.41
-383.99
-461.81
-413.17
-444.23
-425.9
-431.15
-417.85
-479.6
-511.11
-482.44
-483.05
-449.9
-508.36
-454.03
-530.28
-491.21
-502.62
-503.61
-476.51
-514.21
-518.78
-486.81
-487.25
-481.39
-503.81
-455.85
-448.47
-525.68
-454.45
-516.13
-488.86
-473.97
-509.3
-426.26
-480.03
-496.03
-440.82
-458.1
-426.26
-449.84
-430.43
-411.28
-363.45
-391.93
-401.24
-406.96
-378.03
-379.48
-356.38
-356.05
-301.05
-268.8
-241.06
-239.09
-211.6
-252.62
-244.46
-203.21
-229.5
-179.53
-187.32
-134.65
-124.46
-148.82
-140.86
-131.06
-36.27
-70
-79.74
0.01
11.28
38.47
-2.46
4.63
14.31
45.76
29.53
77.26
135.01
142.36
93.08
166.94
161.86
133.14
193.44
152.08
166.9
196.66
276.65
256.14
218.76
291.5
297.4
313.32
297.06
359.43
345.02
311.11
344.88
375.67
351.55
396.04
431.12
405.56
385.91
392.61
392.14
472
479.13
455.05
418.27
472.9
464.9
476.56
1929.55
490.3
526.49
509.08
539.33
468.47
525.66
494.17
475.59
509.9
496.56
499.89
485.42
508.9
489.67
473.64
483.14
441.52
472.2
441.78
504.55
520.78
478.52
463.7
426.89
417.4
437.92
416.19
411.35
386.88
379.47
377.64
360.43
378.97
405.48
338.81
327.92
315.75
375.65
365.33
326.29
314.94
278.65
231.97
287.69
232.68
210.93
170.88
219.49
234.91
178.78
120.3
96.65
99.92
84.01
107.44
109.18
118.81
61.37
3.58
7.27
-30.74
28.51
-63
-74.32
-89.8
-60.37
-60.36
-71.11
-114.27
-84.36
-121.47
-141.95
-154.84
-194.01
-219.44
-214.82
-200.83
-210.49
-202.04
-276.2
-271.57
-257.77
-346.33
-346.68
-296.61
-317.15
-351.08
-362.81
-406.14
-345.02
-384.27
-400.92
-442.37
-460.49
-376.66
-405.91
-391.18
-486.55
-402.5
-406.73
-427.94
-516.44
-515.36
-515.72
-448.58
-482.01
-463.33
-447.98
-543.19
-503.63
-497.13
-498.84
-476.45
-515.97
-480.74
-539.81
-521.46
-446.85
-534.7
-490.27
-498.18
-481.37
-441.04
-462.78
-484.8
-515.71
-455.8
-504.11
-424.65
-467.62
-422.97
-400.36
-397.86
-449.17
-372.79
-371.38
-420.87
-325
-398.78
-368.45
-296.66
-292.31
-322.03
-273.19
-336.26
-315.09
-282.47
-287.21
-279.12
-182.6
-172.45
-246.42
-148.48
-182.48
-167.63
-179.38
-110.59
-71.97
-123.01
-73.34
-119.48
-47.68
-77.5
-69.01
4.87
1504.24
34.72
17.4
16.53
86.22
73.34
64.95
81.12
143.33
176.55
144.87
146.45
160.46
227.29
190.79
205.7
281.01
288.16
242.69
277.57
265.79
297.1
327.92
303.41
311.79
360.58
303.94
405.9
416.05
377.45
346.46
407.01
450.08
427.17
408.77
432.6
476.53
414.86
455.07
452.59
482.47
446.59
449.79
513.44
509.34
518.56
531.22
476.14
527.12
512.3
522.81
473.85
479.2
476.2
530.15
504.93
484.77
503.54
450.33
529.9
492.99
471.9
464.04
507.1
426.22
446.85
419.36
465.07
399.92
392.5
462.53
390.77
393.06
374.73
401.27
412.18
397.53
370.16
328.09
336.7
310.73
306.31
263.59
331.7
275.64
318.13
306.05
230.43
280.22
220.52
240.67
165.92
176.51
153.08
159.51
103.13
152.94
116.69
101.57
115.22
28.44
25.92
44.31
55.56
-7.52
-10.13
-20.33
-76.85
-42.15
-41.22
-84.52
-123.03
-82.59
-176.44
-158.26
-114.14
-161.98
-153.71
-171.55
-188.58
-265.85
-211.11
-234.44
-289.85
-251.98
-245.56
-263.28
-336.24
-282.09
-342.81
-306.36
-369.07
-418.84
-340.02
-421.11
-450.01
-368.21
-440.83
-393.96
-453.35
-398.6
-435.04
-500.32
-410.76
-418.2
-439.34
-477.57
-500.23
-523.71
-479.4
-463.41
-463.68
-480.03
-545.45
-526.02
-524.94
-455.46
-450.01
-475.55
-477.85
-483.12
-533.65
-461.2
-455.2
-528.9
-466.92
-459.94
1021.18
-507.72
-452.51
-423.09
-429.47
-448.57
-412.48
-405.98
-376.28
-364.52
-362.62
-400.07
-346.37
-402.15
-323.13
-344.29
-350.02
-370.64
-305.21
-323.28
-348.58
-256.87
-272.85
-284.59
-276
-218.27
-180.48
-175.73
-194.84
-172.34
-179.63
-165.98
-107.81
-94.38
-87.32
-74.7
-51.83
-65.8
-64.07
-37.78
18.9
-6.44
9.01
-3.02
81.02
32.3
78.59
60.57
61.66
127.68
86.77
168.75
202.8
124.46
195.84
229.13
258.67
241.11
283.29
258.31
293.31
275.36
302.02
273.87
333.17
279.91
308.12
335.4
344.97
348.14
383.68
359.74
399.53
363.55
403.71
387.42
466.88
489.88
403.79
407.27
426.21
503.21
482.44
497.14
521.29
532.67
459.43
464.39
451.7
456.14
531.61
451.25
544.26
529.16
466.04
541.6
459.37
461.21
454.45
517.99
453.52
484.53
443.39
473.23
509.48
426.02
451.27
420.14
423.82
476.43
488.12
475.08
464.4
437.68
396.61
358.58
431.6
395.57
336.14
377.79
387.56
319.06
309.62
305.47
277.52
295.96
320.29
222.32
216.92
196.78
246.62
232.05
148.86
174.99
174.49
119.16
183.95
112.49
113.25
52.09
90.93
43.91
39.17
36.19
44.25
-20.27
-33.52
-65.1
3.36
-87.53
-81.47
-104.03
-88.45
-142.99
-113.25
-136.97
-127.49
-133.4
-165.33
-228.32
-255.79
-241.01
-282.67
-282.43
-300.65
-317.86
-294.01
1166.66
-308.26
-315.83
-295
-301.72
-358.58
-341.31
-401.17
-402.23
-354.27
-365.05
-399.44
-415.49
-383.66
-439.56
-417.51
-479.11
-496.71
-487.77
-478.87
-448.9
-449.55
-532.47
-494.28
-497.41
-518.14
-531.61
-449.06
-476.81
-531.78
-473.92
-478
-541.79
-494.92
-525.09
-532.27
-446.64
-517.67
-483.85
-455.68
-492.98
-445.3
-503.68
-461.06
-418.57
-439.38
-450.29
-448.35
-477.86
-400.07
-399.41
-423.65
-389.35
-341.48
-361.67
-387.2
-364.08
-349.38
-308.82
-287.05
-290.94
-305.66
-264.94
-322.93
-235.97
-228.7
-198.06
-269.47
-263.49
-169.01
-206.39
-221.05
-205.4
-97.33
-100.54
-72.17
-104.52
-66.62
-116.78
-16.09
-67.3
-36.51
-8.97
-43.15
2.15
54.59
87.03
87.59
60.29
98.87
115.35
159.21
97.18
187.96
156.98
152.45
241.05
171.07
254.38
196.18
233.29
246.96
306.87
285.63
278.26
323.25
361.5
313.82
312.27
380.49
342.73
424.39
422.03
442.38
414.1
401.92
469.95
446.87
446.26
468.26
435.7
501.12
416.35
509.68
425.53
502.59
501.34
490.07
455.74
515.79
445.36
496.83
459.07
514.31
509.37
524.61
503.54
528.48
488.28
462.75
463.58
482.16
502.14
476.86
465.36
485.12
450.37
458.01
429.73
455.75
454.25
422.26
408.8
426.58
439.2
368.19
410.82
369.79
378.89
413.68
389.83
338.91
365.4
297.62
280.79
281.02
1752.43
251.88
298.42
265.09
257.01
215.24
260.54
187.77
236.82
153.68
182.41
104.62
100.07
127.42
100.64
48.6
44.34
13.12
40.95
0.02
-35.92
10.8
-64.23
-21.23
-30.78
-89.54
-49.62
-63.72
-80.93
-113.9
-120.91
-131.85
-128.46
-148.91
-181
-227.36
-178.73
-195.12
-229.84
-247.31
-266.21
-275.7
-252.3
-281.54
-306.88
-287.93
-307.82
-388.35
-359.57
-355.85
-410.14
-357.3
-383.33
-393.3
-392.31
-475.44
-427.02
-433.9
-440.36
-481.23
-449.31
-497.11
-479.06
-433.69
-437
-457.44
-531.85
-484.13
-454.61
-465
-487.66
-463.35
-499.62
-463.19
-518.76
-518.54
-539.89
-538.7
-492.48
-535.44
-524.8
-455.37
-507.71
-505.39
-440.37
-457.83
-487.45
-465.84
-479.19
-433.26
-414.67
-476.56
-415.71
-438.62
-421.74
-407.73
-370.1
-417.85
-316.51
-330.29
-336.18
-347.43
-271.72
-336.42
-323.55
-293.31
-271.39
-233.39
-233.23
-186.69
-233.56
-155.02
-172.46
-221.34
-152.4
-150.01
-157.32
-92.5
-129.18
-101.1
-71.97
-105.28
-9.74
-16.07
-6.35
-35.67
61.14
23.55
76.84
43.68
98.77
68.29
150.4
145.49
140.43
188.07
165.4
176.77
194.87
234.79
198.18
268.4
279.62
237.82
285.51
262.01
280.98
338.01
362.58
282.25
313.45
311.2
315.23
377.18
348.06
383.04
429.87
438.72
424.56
394.99
431.01
458.85
491.92
500.66
501.77
509.17
484.62
1932.75
449.31
437.01
528.94
448.18
472.98
517.13
539.84
546.03
535.48
509.81
476.17
515.48
449.84
468.45
538.17
482.58
523.96
525.09
502.45
444.59
445.09
505.45
456.53
419.62
448.71
446.69
481.53
436.03
409
442.85
411.3
367.18
386.99
335.79
349.68
374.6
304.55
350.36
354.41
354.37
323.68
243.67
298.74
234.56
207.84
244.19
236.71
245.57
221.93
189.32
183.16
186.03
160.54
158.81
64.04
118.64
117.28
83.58
15.13
51.51
-28.47
-13.95
3.81
21.55
-9.77
-12.83
-44.24
-82.58
-67.55
-130.08
-124.37
-139.78
-193.73
-169.72
-196.34
-202.15
-215.8
-194
-287.52
-252.99
-315.46
-248.17
-342.43
-305.55
-367.36
-321.77
-390.21
-352.68
-379.27
-359.88
-426.42
-408.4
-393.89
-455.11
-393.52
-452.45
-443.37
-475.61
-482.5
-495.09
-442.05
-444.47
-433.56
-477.16
-485.99
-505.21
-479.98
-461.91
-446.02
-472.51
-465.23
-457.22
-534.78
-549.28
-492.74
-488
-521.43
-504.25
-510.14
-492.54
-443.92
-513.26
-485.82
-487.35
-487.9
-505.95
-475.97
-479.44
-467.15
-421.87
-470.82
-439.25
-413.93
-402.28
-416.37
-425.75
-434.6
-415.6
-409.07
-310.27
-372.45
-339.81
-371.58
-305.44
-263.92
-298.85
-231.3
-293.72
-279.86
-222.87
-193.05
-190.11
-203.14
-155.52
-158.11
-106.28
-110.22
-108.92
-125.92
-99.39
-73.77
-36.84
-6.6
-67.75
6.13
40.22
1539.34
1.49
-9.47
76.48
31.32
117.41
146.6
113
98.89
97.25
147.8
131.82
230.62
249.4
229.68
190.22
231.13
221.55
279.66
248.75
304.58
343.48
299.47
333.16
349.09
394.92
314.06
411.8
420.29
351.04
357.73
380.32
428.58
421.41
459.24
411.47
417.52
435.12
422.84
493.05
434.36
456.11
452.19
470.59
484.07
445.85
452.52
490.55
447.96
526.71
477
481.07
536.69
533.59
499.35
468.83
540.62
501.71
453.2
479.19
460.95
434.67
473.44
499.79
491.49
487.82
413.01
449.87
481.58
423.7
469.94
371.26
432.46
412.69
419.99
369.43
347.12
320.25
380.02
311.27
326.98
290.2
265.23
329.54
308.59
216.67
238.16
252.69
241.68
219.6
245.1
166.09
170.72
189.87
161.95
149.68
83.23
140.66
129.41
46.65
10.49
48.67
55.81
-20.26
-13.37
-62.94
9.34
-47.66
-56.57
-96.27
-107.96
-86.02
-78.47
-134.46
-109.33
-136.61
-163.79
-167.75
-238.27
-199.32
-221.87
-289.85
-249.96
-261.05
-307.59
-343.19
-308.91
-282.87
-292.11
-298.08
-314.96
-417.31
-374.38
-414.4
-374.69
-372.55
-426.8
-451.56
-410.63
-460.89
-461.45
-415.51
-410.44
-487.3
-432.19
-452.07
-487.23
-455.44
-536.19
-446.52
-503.94
-494.89
-494.68
-534.17
-469.65
-522.48
-533.54
-455.96
-499
-504.41
-544.68
-484
-463.89
-517.68
-481.26
-451.54
1052.64
-473.78
-459.88
-477.25
-410.38
-412.55
-478.92
-479.78
-466.1
-393.85
-373.72
-416.25
-385.6
-424.1
-363.78
-340.7
-380.83
-348.64
-299.33
-338.11
-321.36
-313.7
-292.03
-282.78
-242.37
-275.5
-202.24
-233.94
-240.74
-200.38
-155.37
-166.49
-144.75
-83.21
-107.74
-127.02
-116.72
-20.49
-14.9
-63.54
22.89
-6.21
-4.51
11.31
75.2
89.79
87.08
51.69
77.63
108.22
88.93
164.97
181.77
199.1
141.9
229.78
165.82
204.43
232.27
242.05
254.22
316.94
258.56
291.38
267.68
284.95
338.19
341.09
346.24
352.5
332.39
359.16
419.89
429.8
382.03
459.73
410.25
404.72
433.98
465.27
476.68
435.87
423.25
498.68
503.36
492.37
490.87
459.92
531.14
534.71
498.5
517.93
491.95
526.08
477.6
451.86
452.25
464.58
475.52
525.84
513.58
444.16
452.4
507.12
436.92
483.68
491.68
489.71
427.21
494.79
423.82
466.02
438.58
384.03
389.37
353.39
416.55
403.84
345.01
322.49
363.13
293.51
306.05
324.6
338.35
301.96
281.62
278.08
259.64
250.65
208.99
233.86
176.65
203.12
182.52
146.9
176.19
123.49
125.48
143.64
59.88
90.41
65.69
65.18
2.33
-25.62
-3.86
-55.03
-73.49
-91.9
-65.58
-88.9
-108.49
-136.57
-89.33
-123.4
-183.54
-212.95
-216.78
-168.75
-199.58
-183.11
-205.21
-202.21
-247.2
-252.68
-299.76
1170.78
-325.66
-341.83
-363.71
-316.44
-356.89
-320.52
-347.77
-357.94
-356.94
-405.2
-418.1
-378.78
-437.81
-403.28
-439.75
-481.16
-425.21
-459.28
-491.38
-484.94
-438.43
-497.06
-507.25
-520.9
-505.43
-526.31
-545.03
-520.06
-505.8
-459.3
-473.6
-491.11
-472.82
-494.23
-490.56
-492.04
-482.57
-450.61
-532.28
-513.83
-505.47
-434.8
-425.48
-484.85
-432.35
-493.09
-475.92
-409.1
-409.67
-404.24
-434.68
-360.98
-374.48
-390.9
-323.9
-337.44
-362.83
-318.36
-372.96
-335.56
-317.29
-286.03
-248.9
-320.63
-281.08
-284.37
-204.8
-227.56
-168.82
-181.74
-137.85
-209.06
-172.05
-103.13
-86.96
-61.74
-79.12
-55.63
-97.08
-33.79
-15.61
-8.42
-36.67
-28.83
-17.64
18.18
14.54
102.35
76.85
89.16
126.48
179.43
113.81
123.92
226.05
142.9
225.52
230.34
266.78
213.14
237.38
238.34
258.85
268.48
328.37
321.76
342.31
383.7
389.94
368.2
347.64
368.89
439.26
390.4
441.59
435.67
411.2
420.9
473.45
453.86
437.41
471.09
507.49
433.07
449.8
467.69
526.99
468.04
495.93
509.69
524.19
509.24
520.46
532.43
527.81
537.49
516.74
510.13
455.09
456.65
513.42
455.31
475.79
477.46
439.74
461.68
501.76
496.42
419.24
407.2
410.47
472.93
441.23
371.14
417.61
385.04
406.26
360.77
360.2
380.17
305.33
326.8
374.9
287.49
353.97
271.1
1756.37
317.54
239.48
262.18
223.6
243.28
229.03
204.26
179.79
193.73
106.64
144.5
156.43
76.17
66.51
62.09
18.13
68.79
73.65
2.33
-37.22
-61.77
-38.09
-63.4
-98.73
-51.29
-130.49
-85.71
-149.59
-122.5
-123.55
-126.31
-181.56
-226.74
-215.15
-171.95
-197.03
-285.93
-296.59
-252.12
-258.43
-315.61
-259.86
-342.4
-354.52
-312.29
-312.16
-373.95
-395.09
-387.06
-388.86
-418.01
-440.93
-431.13
-386.27
-427.38
-404.85
-417.67
-420.85
-473.11
-479.99
-464.02
-426.55
-459.57
-460.87
-493.42
-467.03
-531.75
-452.63
-530.64
-477.05
-491.8
-460.47
-451.59
-462.21
-478.97
-493.35
-447.53
-463.06
-440.5
-440.21
-438.25
-493.4
-433.11
-510.1
-495.56
-479.7
-465.76
-415.74
-446.62
-388.64
-430.24
-449.19
-372.69
-378.81
-358
-408.44
-408.44
-325.33
-349.97
-323.27
-301.29
-291.5
-292.59
-246.68
-245.49
-224.28
-289.8
-266.98
-232.22
-211.95
-222.41
-151.34
-152.31
-187.46
-169.82
-101.39
-91.65
-62.04
-108.41
-46.4
-10.08
-53.24
-26.93
28.33
-39.16
4.22
75.35
12.65
108.6
50.08
80.12
123.24
113.08
115.28
167.03
173.95
138.58
213.63
206.53
210.05
227.63
284.51
267.04
234.66
330.2
320.91
349.04
307.81
310.04
308.19
325.54
402.7
356.54
365.68
356.22
403.89
388.28
384.87
434.16
420.03
439.75
487.49
420.44
512.85
491.87
1978.86
460.66
467.12
509.42
465.62
511.96
516.39
525.61
478.17
525.69
476.9
471.15
456.22
464.68
519.03
513.86
453.3
445.66
440.99
478.25
432.32
435.76
469.48
424.89
434.84
492.65
455.39
403.75
386.82
382.88
414.35
429.52
372.18
352.82
332.46
387.66
403.75
364.39
304.7
322.89
296.25
329.04
282.5
287.86
224.03
224.98
201.07
232.06
230.69
244.58
190.91
132.99
114.14
96.7
163.24
155.31
50.62
40.57
90.46
36.72
32.98
48.82
-17.16
-7.98
-59.04
11.41
-100.16
-80.67
-46.88
-61.65
-68.23
-129.76
-173.06
-175.46
-156.74
-145.89
-228.77
-221.76
-195.63
-276.9
-246.6
-219.23
-269.37
-273.3
-268.44
-324.16
-282.87
-320.89
-337.61
-334.41
-400.51
-409.37
-433.55
-389.02
-441.41
-445.46
-374.29
-478.5
-412.98
-483.06
-463.12
-457.5
-436.27
-451.26
-457.21
-448.2
-437.24
-489.01
-479.93
-532.57
-524.59
-482.75
-541.83
-453.34
-548.23
-450.81
-532.55
-546.98
-545.37
-494.32
-462.87
-488.56
-522.84
-529.3
-509.27
-453.45
-478.3
-432.79
-460.13
-480.41
-435.67
-432.23
-399.78
-381.44
-370.89
-434.27
-436.43
-344.45
-368.43
-320.9
-324.73
-380.51
-289.97
-368.35
-320.68
-305.41
-276.33
-269.86
-307.42
-228.92
-263.8
-257.19
-189.32
-193.49
-191.86
-190.01
-163.09
-129.98
-176.8
-153.05
-58.77
-51.93
-105.63
-24.65
-77.01
-34.16
-34.2
1542.4
30.92
22.34
23.73
62.09
62.78
65.94
152.48
139.53
94.7
115.78
217.46
172.97
242.51
250.45
245.77
282.28
218.04
282.99
234.46
326.24
309.16
274.36
347.78
361.22
300.39
383.37
325.67
396.04
346.21
408.06
374.64
417.59
449.92
424.68
459.21
479.6
419.79
471.86
435.91
427
446.61
501.03
531.19
467.88
449.84
527.11
539.69
455.69
514.34
504.52
494.96
453.4
516.27
531.47
502.41
447.67
479.54
519.28
457.28
497.93
459.51
431.28
477.37
501.88
500.51
450.53
459.56
490.28
408.21
437.02
414.66
429.67
396.63
394.95
332.23
339.77
375.65
311.39
325.79
301.11
335.79
279.3
343.37
272.21
283.83
251.66
197.22
274.96
191.3
176.51
155.82
128.74
133.85
154.28
99.43
130.48
99.27
40.86
59.75
92.24
44.11
2.48
9.76
11.93
21.6
-51.02
-89.93
-58.42
-65.84
-98.97
-148.13
-144.56
-147.65
-177.92
-208.81
-206.31
-218.13
-200.86
-219.6
-210.11
-248.98
-308.23
-282.61
-244.63
-321.07
-350.64
-333.19
-316.44
-388.64
-403.55
-320.74
-393.36
-374.49
-407.6
-394.26
-413.76
-440.96
-455.63
-417.26
-461.85
-441.85
-484.16
-452.2
-425.88
-447.53
-462.61
-520.99
-458.62
-466.46
-500.53
-483.6
-477.71
-473.84
-529.48
-489.28
-501.18
-496.87
-468.06
-504.23
-459.82
-483.7
-531.66
-512.92
-489.29
-474.37
-438.14
1029.81
-449.72
-437.54
-444.31
-417.09
-480.93
-432.11
-429.6
-407.76
-372.33
-412.72
-390.73
-384.47
-352.41
-350.5
-353.89
-335.97
-365.28
-357.95
-304.36
-337.38
-249.44
-315.11
-218.03
-266.2
-259.96
-219.26
-207.82
-150.57
-186.16
-157.94
-176.89
-167.19
-83.74
-114.18
-81.75
-107.54
-23.62
-7.2
0.7
-41.43
13.41
37.79
21.17
94.99
49.58
114.55
110.64
57.71
120.6
162.21
111.29
133.94
141.74
169.05
240.54
258.41
263.54
208.29
230.84
287.72
262.13
256.59
335.52
345.91
287.29
315.94
355.86
381.1
398.2
354.26
439.28
414.86
423.53
468.92
475.77
479.14
408.32
475.65
459.37
475.16
428.45
462.53
468.03
524.14
496.62
536.93
461.74
462.53
510.49
486.66
468.52
497.46
548.19
520.21
477.08
507
515.7
531.84
522.9
478.35
529.85
458.33
433.82
439.51
465.16
460.96
439.32
463.25
483.09
434.27
477.93
453.39
376.22
355.3
400.43
401.63
404.28
397.8
323.99
312.78
316.58
308.65
353.46
313.57
300.84
293.06
278.57
214.92
240.41
175.37
244.73
156.39
185.87
171.36
182.39
106.57
112.29
119.95
58.33
32.77
101.36
32.85
28.99
30.17
-1.4
9.22
-24.73
-82.56
-61.88
-122.39
-106.2
-120.98
-121.77
-110.33
-189.93
-201.51
-166.7
-165.32
-229.11
-257.39
-189.68
-278.38
-288.25
-281.34
-318.8
1211.38
-343.25
-363.48
-330.07
-307.89
-332.27
-370.29
-348.57
-420.7
-411.99
-432.2
-437.69
-406.84
-452.71
-404.97
-406.21
-420.75
-426.88
-420.32
-489.76
-497.21
-498.09
-470.98
-478.45
-451.64
-446.15
-485.28
-540.84
-475.85
-477.14
-535.73
-507.58
-518.54
-487.06
-487.04
-480.64
-447.35
-452.61
-509.14
-446.08
-509.68
-477.71
-501.79
-469.59
-455.36
-500.38
-458.51
-402.86
-471.51
-404.53
-408
-444.97
-371.2
-430.52
-423.48
-403.41
-354.03
-393.33
-310.99
-326.24
-348.9
-323.93
-322.97
-290.15
-247.7
-292.7
-265.38
-219.22
-229.72
-248.85
-189.83
-205.87
-214.91
-154.74
-158.61
-107.79
-116.47
-94.2
-38.56
-91.37
-85.36
-39.47
11.21
-30.54
4.78
-16.3
-2.86
101.21
65
130.03
76
71.01
87.41
120.47
182.34
197.13
176.39
179.98
254.99
244.41
279.37
251.56
221.09
286.44
289.72
305.51
338.65
284.84
325.61
387.83
377.44
385.79
385.59
387.77
378.68
384.73
421.61
417.84
464.93
461.85
443.57
493.3
429.19
491.68
457.52
511.12
472.2
485.66
442.15
489.37
485.82
539.91
538.03
480.44
467.11
545.36
529.16
476.42
457.46
493.37
448.94
463.79
490.72
446.89
512.4
432.61
427.4
463.02
465.86
487.96
417.21
473.81
458.59
451.95
423.21
430.63
378.02
410.76
357.19
376.5
363.23
372.04
396.73
368.22
365.37
338.73
344.74
1759.7
267.36
285.28
222.28
251.14
271.39
255.49
229.68
180.37
218.56
146.03
189.05
115.53
75.32
132.03
77.81
74.91
24.73
29.37
6.11
36.54
-16.38
21.08
-44.28
-62.96
-28.9
-75.04
-67.51
-153.36
-140.76
-190.98
-196.17
-194.96
-194.45
-163.48
-253.71
-268.74
-207.12
-264.39
-269.49
-254.45
-273.35
-272.79
-296.5
-346.03
-376.47
-373.93
-344.34
-393.25
-373.89
-395.45
-399.59
-388.13
-457.6
-453.97
-409
-396.92
-451.13
-403.47
-463.04
-442.08
-433.62
-478.2
-457.77
-522.64
-483.37
-443.54
-484.35
-474.24
-482.82
-493.99
-511.5
-455.86
-548.71
-487.24
-513.35
-531.82
-494.38
-446.65
-452.3
-447.88
-458.41
-449.97
-476.2
-519.05
-495.12
-502.92
-480.43
-462.03
-412.65
-383.58
-448.89
-421.28
-390.3
-434.7
-340.09
-365.18
-399.45
-316.39
-334.2
-339.47
-281.63
-343.22
-312.92
-313.96
-321.65
-261.82
-281.45
-225.72
-191.45
-178.46
-160.5
-210.1
-219.94
-156.39
-136.61
-135.56
-116.04
-72.94
-114.31
-44.25
-29.37
-30.23
-36.05
1.46
45.19
-8.24
81.16
97.34
97.35
75.81
92.46
145.06
168.78
133.44
151.65
155.75
157.75
186.27
243.17
254.46
225.55
288.41
247.68
227.58
310.62
294.02
309.21
295.75
318.29
318.41
366.93
359.75
395.36
404.58
401.95
387.19
379.92
420.07
398.28
486.73
453.79
450.87
469.05
463.93
497.79
441.58
1947.05
485.82
509.34
478.27
504.32
499.22
479.83
538.38
513.54
469.49
533.24
476.52
483.21
497.11
495.37
500.34
503.16
505.64
469.22
444.6
438.38
511.79
473.45
489.65
453.28
429.3
455.74
447.36
377.96
445.35
442.75