26.75
76.3
87.86
83.89
86.95
93.4
107.91
113.58
105.08
66.92
8.94
-20.71
4.48
37.93
29.48
36.66
56.94
55.8
42.65
-20.53
-65.26
-37.6
-72.93
-181.06
-201.53
-152.24
-162.53
-181.52
-160.05
-105.37
-28.42
-46.4
-87.51
-20.79
39.69
59.99
76.38
71.9
78.72
102.61
125.23
116.1
72.32
62.81
93.2
98.71
69.05
48.65
29.12
-12.82
-41.71
-34.77
68.05
137.64
-120.42
-355.78
-263.47
-155.24
-67.46
-137.29
-317.97
-283.54
-274.57
-229.36
-57.85
-80.05
-90.53
52.25
98.54
88.91
121.14
141.7
154.52
169.01
166.36
148.91
123.7
102.39
82.16
41.02
19.62
12.87
-43.76
-88.29
-87.93
-64.52
-16.52
-53.15
-165.07
-183.76
-94.99
-27.83
-90.68
-167.28
-92.33
-7.49
-25.49
-7.14
60.87
76.3
52.65
49.16
83.46
136.55
178.06
176.17
159.46
165.21
158.5
143.07
98.33
-13.61
-92.94
-75.21
-61.27
-61.55
-4.53
57.4
54.89
-6.37
59.54
181.91
-45.89
-203.86
41.03
95.27
24.18
84.42
72.96
76.17
111.53
96.15
89.24
78.42
69.99
82.44
92.84
81.99
18.3
-41.71
-46.55
-74.53
-97.17
-51.08
-34.58
-85.12
-126.65
-141.07
-110.12
-28.69
21.96
39.9
34.73
-50.12
-117.09
-78.46
-41.77
-68.25
-81.68
-49.8
-48
-83.7
-93.42
-66.41
-15.61
28.24
65.25
105.76
109.44
104.74
123.81
110.94
76.99
76.14
82.25
78.95
58.66
-37.54
-134.64
-99.58
-29.61
-29.2
-18.77
109.46
185.96
-111.85
-337.22
-109.37
-16.51
-82.64
9.78
49.45
50.84
54.17
-16.34
-24.01
22.22
26.32
52.33
77.06
53.27
49.16
52.83
32.16
43.86
66.05
50.54
67.04
75.43
-70.38
-202.39
-126.78
-71.52
-140.01
-121.62
-31.75
-45.56
-143.83
-196.65
-169.35
-135.46
-121.37
-135.73
-178.97
-126.04
-11.28
29.07
63.39
110.27
98.2
42.29
3.41
2.77
5.38
17.95
59.76
99
109.68
118.1
132.03
140.61
133.19
56.33
20.14
81.37
88.14
76.47
74.98
52.97
74.59
81.76
52.99
63.48
85.24
74.02
43.73
11.73
-34.68
-57.94
-12.72
14.66
-14
-60.85
-124.28
-146.93
-94.32
-37.14
-22.76
-11.14
-13.74
-70.28
-138.45
-177.75
-129.95
-19.72
-3.05
-58.2
-33.53
33.46
41.65
41.17
65.67
76.91
88.9
69.35
-11.12
-51.07
-76.48
-182.11
-254.88
-229.12
-166.45
-108.1
-87.8
-80.57
-28.43
32.25
-21.24
-129.46
-156.55
-183.78
-184.63
-60.35
8.12
-34.71
-36.96
-81.14
-167.43
-115.75
8.54
124.47
231.39
263.39
252.87
266.64
277.73
278.19
289.72
284.59
274.14
249.96
149.08
50.51
0.77
-75.53
-95.34
-9.22
8.28
-47.3
-51.05
-89.96
-161.32
-167.48
-203.42
-255.8
-245.04
-212.57
-123.83
3.31
68.04
62.02
42.06
67.96
129.57
179.19
223.26
278.86
302.73
275.46
264.78
282.64
291.73
268.47
180.73
107.04
129.91
180.03
188.58
164.11
139.24
128.01
116.91
57.19
-54.93
-92.9
-28.6
30.76
53.22
60.23
65.32
66.77
76.41
89.31
80.16
65.39
46.85
44.88
55.93
52.97
51.55
5.61
-83.21
-153.55
-167.46
-133.01
-154.12
-188.49
-122.09
-50.37
-49.72
-63.8
-81.08
-122.48
-150.27
-166.7
-192.95
-174.84
-127.71
-148.89
-230.33
-239.09
-180.53
-170.71
-128.97
-44.19
-14.23
23.42
52.09
39.2
51.52
70.32
76.48
66.47
47.36
47.58
73.02
91.92
46.92
7.23
5.05
-41.85
-92.09
-124.08
-156.37
-125.47
-55.32
-23.45
-30.18
-84.01
-184.27
-214.52
-170.31
-165.34
-145.84
-134.63
-196.8
-191.92
-94.51
-30.12
-16.2
16.73
57.28
70.53
82.23
69.91
57.02
86.35
110.82
95
52.92
44.11
74.93
93.88
72.91
16.04
-39.52
-65.5
-46.21
-60.74
245.78
725.62
50.18
-677.53
-91.32
-20.38
-445.76
-231.08
-139.8
-207.17
-139.63
-157.03
-100.75
30.52
40.8
52.86
95.16
97.85
115.18
94.61
29.62
-10.67
-26.43
-83.64
-170.96
-207.02
-267.27
-291.96
-209.51
-188.73
-207.48
-145.74
-14.58
100.12
155.84
197.4
191.81
171.96
200.37
205.36
148.64
114.14
88.47
-130.52
-243.29
-22.77
-25.91
-134.72
56.1
108.54
-34.08
43.01
183.37
174.47
186.87
212.92
182.6
179.23
202.32
199.09
155.05
104.24
20.58
-48.02
20.21
63.64
-14.54
3.02
74.73
-19.2
-134.84
-136.22
-159.73
-158.2
-62.85
-4.51
38.98
103.87
129.98
158.5
153.89
42.77
-34.02
33.4
109.78
134.65
118.71
-3.25
-67.9
34.71
96.61
98.03
140.36
100.56
-40.06
-99.5
-115
-125.38
-11.24
79.25
61.48
103.51
159.68
141.18
115.95
119.13
119.41
110.87
112.42
101.87
75.71
67.24
76.64
60.06
8.01
-43.56
-48.38
-9.09
12.98
0.87
-95.02
-224.78
-209.2
-100.54
-20.36
-6.43
-72.27
-104.56
-78.43
-72.74
-82.62
-59.01
4.2
21.96
38.87
98.68
74.3
-6.16
-39.6
88.37
238.36
-19.37
-268.73
-99.96
-54.82
-99.24
-3.26
-17.34
-99.9
-189.83
-275.45
-249.52
-199.43
-181.16
-166.62
-195.75
-173.96
-66.22
12.78
54.78
65.7
75.62
119.3
158.84
166.28
135.98
119.16
135.58
157.36
160.88
115.99
73.11
43.26
14.43
34.9
50.95
2.17
-73.44
-110.58
-138.94
-172.93
-106.43
-28.61
-66.99
-136.36
-154.33
-128.61
-118.3
-116.61
-149.88
-231.17
-245.54
-202.73
-149.85
-83.87
-6.59
74.23
111.74
150.71
183.35
144.51
100.07
71.4
46.73
82.99
156.02
171.82
151.21
169.4
187.89
184.66
179.13
161.34
165.03
174.05
149.79
140.14
152.59
140.21
93.47
31.31
-46.2
-121.22
-173.24
-182.17
-109.57
-31.27
-2.43
-16.88
-114.3
-157.06
-61.66
14.72
-12.09
-112.64
-144.23
-48.12
35.7
62.41
28.58
-27.88
12.5
88.6
89.46
38
-23.51
-56.1
-34.53
11.65
43.7
57.11
73.49
100.26
106.97
96.23
95.63
80.73
75.07
94.46
91.18
68.15
41.27
40.86
50.44
-0.44
-72.36
-138.88
-224.56
-266.22
-215.69
-136.47
-96.41
-58.79
-9.61
-19.34
-61.88
-47.82
6.74
29.03
-11.63
-105.76
-146.54
-78.96
-54.62
-75.94
-46.32
-72.47
-146.34
-125.72
-37.91
13.52
38.71
70.66
88.96
115.85
120.67
96.07
108.62
107.87
88.56
102.82
108.74
78.98
20.73
-68.18
-171.62
-184.5
-94.26
-103.43
-215.1
-272.28
-273.71
-234.45
-178.77
-146.04
-90.58
-42.11
-45.03
14.13
89.17
19.73
-77.66
-95.41
-65.01
16.1
72.17
95.14
150.61
202.44
182.91
74.89
48.61
145.3
175.82
177.15
180.35
135.37
140.16
188.02
162.35
50.82
-57.38
-45.26
62.91
74.5
18.33
42.7
20.34
-84.61
-155.28
-207.76
-211.13
-168.55
-190.66
-237.49
-191.04
-94.34
-63.66
-47.77
34.6
102.9
123.08
152.56
184.39
184.25
180.75
197.95
191.7
168.45
163.03
263.87
336.88
46.55
-156.82
7.99
-28.06
-94.92
-5.2
-123.92
-194.82
-91.01
-123.36
-192.77
-159.74
-149.74
-215.83
-290.29
-302.41
-281.36
-276.29
-223.38
-142.09
-126.24
-80.11
39.95
117.22
160.7
229.76
257.12
187.81
134.44
177.98
241.85
249.36
176.06
106.3
130.53
138.47
47.68
-11.18
-0.17
-13.87
-6.3
20.13
-13.7
-32.38
-55.94
-140.52
-115.92
22.55
78.38
97.36
154.92
140.05
91.87
126.04
160.24
165.19
191.44
197.83
183.97
170.26
161.7
166.95
165.5
143.97
107.5
100.16
116.65
109.25
83.92
48.26
24.5
-3.33
-30.63
-16.39
-27.92
-39.45
3.75
30.89
30.99
-4.43
-33.67
-5.09
-4.3
-32.27
-32.95
-28.84
-36.54
-45.32
-53.9
-40.29
-13.16
-53.79
-95.86
-75.34
-75.39
-74.16
-70.39
-91.91
-105.21
-139.45
-174.95
-157.41
-130.87
-125.24
-96.89
-71.26
-87.58
-91.27
-81.09
-87.06
-120.36
-169.7
-158
-119.68
-109
-93.21
-119.66
-169.28
-153.86
-123.38
-146.91
-161.89
-117.24
-90.11
-84.19
-44.82
-11.42
-7.14
-21.95
-28.2
-16.57
-37.66
-99.56
-175.74
-252.12
-297.14
-301.38
-322.1
-319.73
-200.45
-73.05
-7.26
46.55
54.55
105.12
157.18
-3.85
-71.34
690.74
1426
255.72
-788.61
71.78
175.87
-277.87
31.89
-7.47
-78.09
27.93
-42.82
39.54
91.32
44.32
59.42
44.71
50.99
82.12
71.62
55.01
41.19
42.85
62.2
5.65
-108.84
-155.09
-186.13
-141.71
25.46
39.95
-44.35
-36.29
-53.1
-33.82
57.63
67.06
77.02
87.99
11.45
-9.65
-48.09
-120.28
-35.78
10.64
-11.81
51.66
35.65
15.68
88.57
105.02
119.36
132.84
109.99
124.25
108.91
83.54
79.86
-12.57
-118.48
-141.57
-147.89
-126.25
-39.68
15.78
-36.32
-68.92
30.89
69.3
-5.55
62.5
167.24
135.89
106.8
69.18
52.74
129.32
117.13
21.09
50.86
87.28
-9.55
-22.04
47.98
24.89
-16.29
4.58
69.3
106.51
115.94
136.13
137.09
128.96
116.39
113.24
122.33
69.92
-5.79
20.43
67.14
44.92
56.35
87.53
73.81
72.06
84.04
59
28.89
42.58
55.48
42.86
25.7
9.85
5.29
14.81
-43.11
-207.15
-274.47
-233.09
-264.1
-262.86
110.78
554.79
65.31
-425.46
24.55
-95.95
-450.37
-114.05
-24.77
-22.41
90.17
-88.93
-148.6
-4.04
48.54
72.59
62.9
-6.9
1.87
34.22
-12.05
6.8
77.54
68.9
74.13
107.21
88.1
37.3
-29.07
-40.66
-0.27
-17.63
-19.9
30.88
41.18
56.51
89.52
80.59
67.54
63.94
48.11
54.81
78.34
70.89
41.02
28.95
27.33
-76.27
-297.61
-363.59
-236.6
-232.1
-317.05
-279.19
-193.12
-184.8
-184.03
-59.9
-53.58
-312.85
-337.02
-79.03
-30.61
-86.33
-18.7
63.92
127.18
184.67
225.71
218.34
150.71
127.27
172.94
193.39
202.58
226.97
216.51
190.86
193.32
197.87
178.96
149.54
128.58
112.94
70.02
-21.38
-113.54
-177.64
-243.42
-273.3
-263.2
-242.87
-172.77
-116.89
-103.49
-86.28
-77.09
-36.77
-11.95
14.67
96.02
81.03
57.52
104.67
50.36
32.04
133.55
169.06
141.29
84.96
73.89
160.48
165.59
120
159.19
143.79
38.34
41.11
128.3
119.26
89.32
109.39
105.26
90.64
76
53.33
38.05
26.29
32.74
48.54
34.02
20
22.73
-0.36
-26.51
-56.9
-88.43
-45.81
-29.96
-165.4
-319.42
-367.09
-342.87
-278.14
-215.46
-171.34
-84.18
-3.37
-11.84
-91.89
-182.62
-230.27
-223.12
-133.22
-15.43
34.89
77.48
125.98
117.23
107.82
131.02
130.96
119.56
81.3
-62.29
-207.12
-226.1
-192.32
-146.81
-99.56
-120.65
-190.26
-194.69
-120.41
-96.46
-149.9
-124.48
-48.72
-147.36
-279.29
-263.81
-245.2
-167.54
-38.25
31.88
139.42
189.84
108.93
62.99
133.12
228.34
257.38
265.45
248.96
189.87
194.52
234.72
221.51
224.16
250.37
250.17
235.33
208.36
178.03
117.65
55.6
78.67
80.27
3.53
7.99
44.11
-19.97
-23.84
72.63
82.99
46.34
73.11
103.83
109.66
109.3
97.88
86.37
64.02
41.3
49.24
49.24
34.96
25.93
15.56
18.62
0.11
-85.8
-192.53
-236.62
-184.49
-132.72
-199.35
196.91
818.56
-26.05
-898.19
-203.04
-147.64
-558.45
-258.4
-217.86
-177.69
58.59
42.36
68.41
125.93
74.03
67.31
22.68
-129.62
-205.21
-204.5
-281.17
-324.47
-241.5
-149.19
-70.53
-78.56
-182.39
-164.4
-55.14
46.08
122.87
79.88
92.65
194.38
121.81
2.53
20.75
14.62
-23.4
59.8
148.9
155.72
159.82
141.98
131.15
155.44
148.67
131.93
101.68
12.19
4.63
92.96
64.31
-61.34
-95.58
-3.85
51.14
28.31
53.14
83.22
75.43
83.24
76.36
46.05
47.29
60.47
52.12
44.89
-7.48
-143.36
-239.08
-234.84
-236.54
-239.8
-214.1
-229.76
-253.97
-218.31
-188.2
-191.78
-124.42
18.49
81.19
46.15
94.25
167.63
234.27
311.75
61.33
-107.91
112.87
58.91
-15.07
136.11
99.84
91.95
154.65
121.07
116.3
108.3
81.87
83.15
69.85
67.75
50.16
-22.14
-23.55
40.07
32.47
30.99
64.77
3.62
-66.87
-38.75
-4.88
8.11
34.34
39.31
23.65
20.03
26.47
31.01
-22.79
-156.07
-204.24
-137.61
-162.16
-226.64
-208.51
-103.6
10.4
-160.5
45.16
704.42
125.53
-531
107.95
123.27
-148.78
160.65
72.88
-25.52
33.7
-113.97
-120.27
-28.39
6.78
30.28
-22.43
-105.13
-133.46
-84.66
-40.23
-117.37
-194.23
-191.26
-224.23
-251.19
-197.23
-74.16
54.63
86.95
66.1
31.61
40
130.71
148.87
130.34
154.58
99.52
-7.81
-73.87
-116.88
-167.25
-202.06
-193.6
548.33
1470.65
197.13
-1032.21
-2.43
-45.61
-541.94
165.7
138.87
-45.3
151.29
56.58
100.87
128.51
58.29
145.62
151.7
132.32
168.48
127.1
99.67
69.2
-14.75
10.41
99.58
83
59.19
86.29
60.57
-41.96
-108.01
-72.75
-104.87
-164.31
-47.52
64.59
56.29
67.86
86.67
89.08
92.63
72.05
54.57
19.14
-48.14
-40.62
1.54
-48.6
-54.02
27.96
45.86
48.15
52.62
21.97
18.38
21.6
14
33.28
45.18
31.07
24.21
20.46
-17.72
-117.68
-171.42
-122.79
-151.51
-190.83
-77.29
-44.1
-126.26
-74.79
-17.99
-75.5
-24.88
64.55
29
33.6
74.85
51.52
1.85
-66.39
-50.54
6.78
-53.48
-69.31
-86.06
-248.18
-267.84
-176.46
-162.19
-62.34
46.41
45.08
35.5
6.58
30.19
115.6
98.81
74.54
110.67
71.3
-53.37
-147.4
-165.81
-142.02
-41.84
24.47
-88.24
-134.26
14.68
105.79
73.36
25.75
39.27
99.77
102.3
96.23
141.46
155.5
107.17
42.94
1.15
-10.61
-27.39
-53.83
-94.99
-166.81
-147.67
-8.3
50.69
-16.46
-45.34
-38.14
-38.05
29.31
82.63
79.89
92.65
98.61
93.15
103.73
126.3
96.61
-7.08
-29.8
37.42
-13.4
-143.75
-195.05
-176.76
-125.21
-121.79
-169.12
-146.45
-103.36
-60.77
-27.45
-98.99
-122.36
-74.97
-119.93
-115.71
7
67.64
35.84
30.87
90.98
155.14
176.99
177.07
198.54
192.47
121.4
84.85
132.68
167.78
140.86
132.1
146.68
146.64
97.52
-18.5
39.95
180.26
-29.94
-261.16
-253.59
-322.25
-265.67
-88.49
-187.84
-268.71
-171.63
-172.02
-122.55
-35.69
-106.19
-142.55
-103.13
-30.14
127.25
216.82
215.07
242.72
248.95
183.89
147.96
137.11
41.88
34.17
179.33
200.14
100.68
39.29
11.28
10.54
-15.44
-47.16
4.48
18.66
-66.95
-86.65
5.83
82.3
53.54
11.03
5.06
-56.29
-74.7
39.79
137.83
171.94
226.55
267.48
229.73
203.29
228.72
211.28
155.04
124.26
153.48
168.81
34.99
-125.08
174.21
588.49
-93.18
-752.92
-196.97
-22.65
-193.35
-21.97
-169.55
-220.99
-118.07
-249.27
-249.34
-136.74
-30.44
108.62
139.74
148.68
186.61
170.21
180.51
187
142
132.52
141.62
97.97
18.33
-50.06
-110.89
-128.74
-124.93
-186.61
-194.76
-137.38
-166
-159.22
-108.98
-173.86
-176.91
-48.04
23.68
59.77
110.9
90.49
13.91
13.02
87.14
100.55
32.15
-34.48
-10.84
71.62
83.98
32.55
-70.43
-174.43
-112.59
-33.35
-129.34
-209.44
-217.14
-252.3
-245.91
-205.22
-145.42
-23.91
64.82
95.08
106.71
80.55
80.59
103.83
33.81
-70.65
-101.6
-157.9
-258.54
-307.36
-325.07
-267.74
-145.33
-120.64
-151.83
-148.85
-197.82
-237.5
-154.28
-108.28
-138.58
-29.98
130.85
174.8
220.57
252.57
224.32
237.71
253.7
192.23
66.8
-31.81
-61.03
-95.66
-140.33
156.43
576.24
59.51
-466.75
13.97
41.11
-240.79
-9.72
58
80.65
176.82
135.06
192.26
196.25
47.05
26.39
21.6
-52.62
-6.9
-17.03
-133.72
-141.37
-122.78
-165.22
-228.25
-254.95
-215.74
-202.88
-138.38
63.98
178.23
170.96
183.22
156.89
164.45
245.27
231.15
192.16
224.54
227.91
207.32
186.75
156.19
137.86
74.55
40.38
113.58
89.83
-54.03
-78.39
-26.24
-106.55
-173.54
-52.9
59.25
67.49
72.53
46.18
-22.95
-10.76
70.96
49.34
-23.41
-30.26
-94.47
-154.66
-50.36
36.5
29.45
53.76
86.58
88.22
62.53
47.79
73.54
89.26
71.13
38.54
31.05
40.93
27.09
30
38.09
8.75
2.96
12.77
-7.36
-4.1
-3.15
-35.47
-37.65
-22.02
-24.68
-68.76
-160.22
-204.1
-187.78
-187.64
-176.89
-166.23
-186.43
-170.12
-114.26
-54.13
6.14
25.27
5.77
14.14
43.84
50.21
12.17
-72.16
-69.35
11.45
14.47
-12.83
-81.36
-122.29
-54.87
-111.94
-185.86
-90.26
-40.42
-22.24
49.86
71.81
53.55
-9.89
-94.38
-55.96
40.26
45.39
37.15
57.04
50.27
50.34
49.64
37.91
55.13
55.49
31.31
26.57
30.9
42.88
38.85
16.88
12.81
25.81
41.05
25.72
-3.33
-2.33
18.65
32.98
9.51
-17.02
-9.54
12.56
34.73
17.96
-33.26
-88.23
-105.87
10.65
85.96
-116.71
-213.47
-44.77
-70.99
-166.91
-83.17
-47.2
-44.39
-36.6
-100.43
-129.75
-116.68
-89.28
-16.6
27.73
30.94
30.83
43.7
84.3
104.83
87.66
64.5
63
84.48
89.5
22.37
-116.5
-228.43
-315.35
-428.18
-462.12
-418.12
-378.19
-327.52
-285.86
-252.8
-198.96
-105.02
-31.28
-59.91
-70.21
-25.28
-42.93
-52.47
5.95
92.02
222.66
321.68
345.64
393.92
433.55
416.16
385.33
324.34
290.8
335.96
358.06
323.77
310.91
328.62
310.02
275.59
278.88
272.68
240.43
191.88
115.64
66.76
20.52
-29.37
34.45
84.05
-11.84
-86.92
-110.27
-164.11
-166.84
-66.9
5.94
-10.85
41.68
116.7
53.98
54.65
161.53
171.79
160.24
182.07
169.12
132.05
50.36
-58.82
-116.66
-102.08
-96.46
-149.39
-186.72
-228.73
-296.06
-296.68
-257.09
-228.85
-155.25
-62.68
-27.58
41.63
174.5
198.76
131.43
133.54
155.03
110.52
91.27
109.34
106.49
111.38
106.86
120.1
147.02
101.09
67.46
101.93
116.18
105.09
96.39
95.55
120.91
134.47
108.68
93.57
101.43
65.58
-21.38
-44.44
-0.29
4.79
7.26
39.18
38.72
15.5
-23.29
-94.34
-112.73
-68.46
-96.23
-169.91
-150.85
-75.55
-68.63
-123.79
-126.84
-97.99
-134.88
-132.74
-64.05
-57.38
-60.55
-63.61
-119.83
-105.66
-44.69
-60.84
-64.66
-29.86
-37.45
-50.37
-46.77
-52.2
-36.49
-1.32
-38.55
-166.06
-149.81
-9.02
-149.88
-310.23
-190.88
-172.14
-162.66
-86.5
-154.23
-135.32
-40.2
-50.84
-93
-161.3
-183.47
-173.85
-237.3
-194.91
-72.45
-59.24
-29.51
9.69
-67.87
-129.16
-113.72
-117.5
-92.63
-21.42
6.95
29.54
71.93
78.22
68.84
82.11
96.81
82.43
70.77
91.54
104.85
89.6
80.58
84.43
60.4
29.04
38.01
49.28
36.3
28.05
28.94
17.79
4.09
11.65
28.31
42.89
37.91
12
0.33
17.87
38.82
10.61
-16.33
27.24
33.48
-11.92
-12.45
-6.97
1.41
15.88
-24.18
-99.96
-208.26
-313.13
-377.32
-431.56
-434.25
-418.88
-432.78
-420.39
-381.23
-324.56
-288.02
-281.98
-251.88
-238.19
-223.6
-168.91
-144.89
-54.23
143.5
265.66
322.84
380.23
396.56
385.08
347.32
303.8
273.68
266.95
310.67
314.12
208.81
121.37
162.49
235.99
253.95
283.91
319.13
308.98
294.83
293.52
288.54
273.47
248.02
227.14
184.27
108.09
104.28
135.48
32.25
-67.05
4.57
88.08
68.46
-23.33
-91.87
-22.06
47.2
-25.39
-67.59
8.8
78.25
111.09
140.98
148.97
141.47
136.27
127.58
124.23
138.86
111.62
11.59
-13.82
22.26
-35.6
-81.85
-86.92
-89.59
-5.91
23.7
-80.27
-129.97
-93.15
-112.97
-190.84
-195.63
-111.95
-29.78
-16.89
-57.24
-32.54
56.47
81.51
73.78
96.89
106.26
99.13
89.08
77.66
74.91
41.91
-18.99
-8.98
39.85
30.23
1.27
-41.14
-62.23
-16.37
-1.87
-36.4
-74.75
-110.08
-122.67
-99.7
-49.85
-50.16
-101.68
-118.91
-132
-122.75
-47.85
-6.84
6.15
49.39
64.29
48.86
41.7
38.89
36.37
-5.64
-97.09
-114.01
-52.79
-34.18
-18.66
-25.68
-104.79
-104.09
-32.84
-53.91
-140.06
-226.49
-278.14
-222.14
-114.07
-58.71
-16.61
34.21
48.04
57.59
77.41
61.31
36.98
44.09
25.03
-41.18
-57.62
-17.21
-28.55
-105.66
-176.75
-193.88
-210.57
-247.81
-218.44
-217.99
-285.66
-254.13
-173.28
-107.34
-21.09
40.55
93.5
131.64
136.47
147.13
149.5
154.98
171.26
172.87
172.09
139.72
112.62
146.47
132.33
72.88
83.75
93.37
41.25
-11.42
-23.58
-2.5
-22.57
-56.49
-24.49
2.68
3.83
-12.05
-53.11
-37.37
-5.4
-40.79
-63.22
-21.2
-2.2
-45.57
-62.58
-18.49
24.29
22.99
-14.3
-39.12
-13.46
26.24
40.66
67.54
95.37
70.36
13.03
-34.48
-5.81
48.56
-6.12
-66.26
-23.48
32.51
54.92
47.88
-1.82
-50.07
-17.88
43.71
36.36
-1.62
-36.63
-87.46
-147.28
-145.87
-58.15
-28.8
-70.73
491.42
1202.4
188.19
-748.23
85.76
84.44
-299.66
159.44
60.01
-68.57
121.82
38.78
15.29
-43.77
-154.44
-38.91
-18.8
-158.8
-143.56
-23.77
34.03
52.71
28.25
-70.51
-63.36
59.95
81.39
66.37
81.09
69.49
70.81
50.56
39.66
42.45
-40.6
-51.8
18.99
8.68
25.06
63.62
46.16
34.5
17.54
7.88
30.41
32.74
14.76
-28.15
-98.47
-69.91
10.91
-34.06
-97.65
-91.98
-118.86
-140.66
-111.96
-58.23
27.27
48.39
21.33
13.27
-58.15
-97.43
-67.66
-45.66
20.2
46.56
25.64
50.1
65.56
64.45
67.06
54.08
33.31
31.17
0.04
-97.5
-119.63
-104.02
-197.89
-209.36
-101.24
-138.09
-206.16
-101.82
-73.88
165.33
611.66
90.43
-416.51
144.88
172.08
-62.59
171.46
52.74
-53.78
74.49
57.8
26.89
-8.96
-27.87
6.84
-25.86
-7.93
80.92
66.05
44.66
74.14
73.78
74.62
74.16
58.4
38.9
42.75
41.75
-75.51
-191.25
-168.69
-118.7
-127.58
-133.21
-68.16
-93.28
-176.13
-64.3
65.71
73.47
112.54
153.05
141.95
114.72
64.94
16.55
18.31
52.03
27.83
-71.43
-110.77
-29.29
24.66
-67.92
-178.71
-144.55
-66.44
-64.76
-61.08
-49.18
-1.22
102.84
118.61
107.77
135.55
120.23
139.13
166.58
135.9
142.47
141.58
87.62
61.62
22.57
1.49
72.06
87.01
41.36
50.8
22.29
-22.21
28.41
17.54
-76.12
-30.97
55.09
33
44.3
57.61
-15.12
-49.96
-19.87
5.17
-55.26
-239.52
-319.15
-156.58
-29.23
-16.51
49.97
111.42
111.64
95.04
78.18
83.35
105.12
105.41
71.88
50.18
54.12
53.94
24.74
-80.68
-205.56
-216.95
-149.48
-150.45
-187.31
-118.6
-16.61
19.46
30.08
-35.26
-120.6
-53.25
42.61
52.39
80.2
94.93
79.07
94.71
89.25
63.09
71.88
80.71
56.57
53.1
82.41
83.87
59.75
49.55
29.76
-50.43
-100.07
-42.21
-10.17
-18.47
7.64
5.5
7.66
19.51
-74.37
-166.68
-168.39
-185.21
-167.1
-74.48
-24.81
-17.31
7.81
6.95
-79.4
-159.57
-111.63
-47.52
-78.59
-80.03
2.12
37.96
22.84
46
72.2
72.85
80.2
78.1
71.5
71.48
52.91
49.91
68.93
47.8
-11.45
-46.84
-27.52
-24.05
-99.14
-190.74
-254.99
-313.37
-357.2
-338.48
-304.64
-330.76
-320.43
-269.59
-262.54
-233.7
-205.02
-220.25
-211.8
-208.13
-199.15
-141.46
-94.03
19.82
190.76
228.84
180.07
181.61
243
302.07
338.85
736.96
1131.85
380.56
-211.02
337.2
259.1
-4.93
318.78
262.42
195.96
281.14
192.78
213.72
227.62
175.13
156.01
66.16
41.21
98.21
26.82
3.01
72.9
-1.82
-57.39
-51.87
-92.67
-17.89
56.24
49.68
90.21
103.68
99.07
104.99
76.48
37.21
-40.09
-146.41
-222.13
-224.77
-116.98
-6.65
25.36
59.74
78.68
65.72
51.96
-12.07
-49.38
-45.21
-62.09
-23.11
19.15
4.09
-41.93
-60.8
3.21
24.52
15.41
48.96
30.1
-30.17
-79.04
-97.93
-111.91
-101.55
-21.32
-42.6
-138.2
-82.66
4.39
-10.71
-13.76
12.75
-0.75
-1
-5.98
-118.62
-205.82
-154.23
-134.02
-139.86
-106
-155.96
-129.88
2.04
-34.79
-108.14
-54.05
17.31
45.06
27.25
20.77
48.39
58.22
36.57
-10.69
-107.55
-185.27
-104.41
-0.25
-9.56
-33.19
-77.6
-74.87
-29.41
-77.77
-58.43
21.08
-24.92
-82.04
-57.27
-8.19
36.22
54.52
27.44
20.85
51.13
50.8
37.7
31.31
-15.72
-92.85
-99.47
-117.65
-189.16
-146.7
-148.2
-214.09
-126.34
-71.42
-97.99
-95.5
-78.75
8.24
66.08
47.78
69.55
104.12
109.96
102.63
101.62
117.82
106.13
103.61
115.81
19.96
-73.84
-56.08
-49.11
-69.5
-91.2
-60.94
-5.96
-47.27
-48.77
38.05
64.19
46.06
13.49
0.77
46.29
72.68
57.52
6.86
-29.84
-7.84
-30.99
-38.44
53.53
88.22
76.21
106.62
103.65
96.41
125
110.72
82.4
84.8
75.11
76.8
91.16
24.7
-137.28
-250.61
-220.14
-152.11
-149.77
-167.88
-134.54
-57
-10.64
-43.64
-95.75
-120.06
-92.58
14.93
73.4
5.98
-73.68
-98.79
-69.11
-69.7
-104.48
-14.79
115.72
148.94
171.18
195.4
209.54
237.54
240.85
219.95
217.3
227.57
207.75
189.43
190.33
235.6
261.61
37.72
-129.21
25.83
78.43
27
29.26
-37.04
-78.81
-118.99
-195.84
-158.86
-65.99
-66.57
-91.86
-79.11
-114.79
-134.24
-82.23
-58.4
-11.49
80.05
116.05
129.31
156.73
165.79
173.57
186.84
177.75
156.71
142.23
148.18
131.93
24.64
-71.62
-81.03
-115.21
-178.17
-174.58
-98.95
-25.94
-14.03
-35.35
-74.73
-153.33
-201.6
-124.83
-26.93
-60.61
-136.87
-102.1
5.82
13.46
-81.31
-75.24
27.77
99.31
134.69
127.31
91.74
70.54
102.45
149.69
142.94
139.23
149
154.24
171.29
158.41
129.92
118.64
132.5
157.26
135.46
79.73
54.76
69.72
107.35