-498.51
-484.55
-473.25
-516.22
-443.42
-436.82
-511.65
-516.25
-453.02
-450.28
-416.87
-464.06
-420.55
-431.96
-462.14
-415.76
-395
-349.91
-338.62
-325.51
-376.66
-324.7
-339.24
-284.72
-323.12
-301.85
-309.16
-299.39
-283.44
-251.86
-242.28
-182.08
-264.94
-211.52
-204.37
-195.42
-170.08
-144.18
-134.5
-105.86
-91.51
-76.04
-125.06
-52.09
-11.3
-32.61
-28.71
3.98
-18.92
-12.93
21.16
69.62
77.69
136.29
136.35
156.83
138.19
193.91
138.09
152.5
174.1
227.43
228.17
196.75
257.14
268.33
266.53
237.57
330.19
305.25
286.82
358.46
352.12
388.12
377.5
327.18
379.37
381.5
383.27
413.35
440.75
473.61
393.46
409.23
475.38
464.97
508.72
457.79
474.15
2008.44
521.83
469.74
503.09
533.41
492.12
509.79
496.42
537.99
527.73
455.98
468.89
464.51
466.29
461.01
460.8
454.38
454.45
484.91
440.16
505.76
443.98
496.14
493.65
479.8
457.55
476.86
432.74
386.05
417.74
422.82
422.5
430.54
350.14
417.95
411.33
398.01
374.48
346.05
332.61
297.22
316.67
254.76
223.7
270.59
242.63
210.65
247.14
169.04
242.91
179.11
177.94
120.53
149.75
155.52
58.39
75.96
107.91
19.97
88
82.61
7.94
-22.34
-2.16
-52.44
-15.62
-56.91
-67.19
-96.56
-96.19
-83.14
-165.94
-127.49
-189.62
-214.89
-164.47
-214.72
-180.98
-238.24
-286.34
-281.46
-274.76
-232.24
-319.84
-340.66
-347.01
-297.17
-340.32
-374.86
-344.16
-341.51
-337.45
-354.36
-431.43
-458.9
-379.29
-408.87
-384.12
-449.89
-398.61
-456
-450.62
-460.48
-429.3
-486.58
-436.03
-506.06
-485.44
-461.7
-538.39
-513.57
-453.66
-483.28
-454.37
-497.16
-524
-531.56
-468.51
-507.85
-484.33
-493
-477.35
-436.83
-460.32
-527.72
-478.95
-462.39
-438.91
-488.75
-448.94
-490.4
-431.03
-411.16
-373.59
-381.09
-399.77
-402.86
-390.21
-420.17
-411.79
-403.69
-380.95
-365.52
-327.04
-323.92
-312.76
-258.88
-228.8
-271.82
-248.4
-251.49
-235.23
-160.63
-183
-183.34
-180.87
-175.84
-158.26
-107.77
-134.76
-106.75
-115.5
-65.35
-33.09
11.25
-7.69
-51.92
1499.36
63.93
1.32
96.81
79.82
82.47
82.35
160.48
129.43
112.3
166.5
160.87
142.45
186.28
244.81
254.81
247.42
271.25
242.32
248.93
312.23
254.51
276.43
343.26
294.66
358.82
332.44
377.32
346.22
434.35
358.67
457.66
443.71
430.03
451.37
478.54
451.64
493.44
424.72
510.54
475.66
443.08
466.09
475.86
527.04
491.91
474
490.61
535.93
548.19
481.28
537.01
450.26
516.45
482.66
460.91
542.16
519.53
533.61
518.21
532.86
439.23
443.74
461.43
426.92
467.68
457.31
472.87
410.95
437.96
376.64
436.33
438.14
442.02
393.81
331.66
399.97
349.43
392.91
373.23
307.21
282.8
293.52
243.39
248.24
266.53
277.64
278.17
257.56
201.22
152.98
182.26
177.62
132.69
101.17
141.7
77.4
140.76
123.39
40.24
101.25
65.17
51.36
20.56
-26.01
-46.07
-71.7
-87.32
-116.76
-74.9
-88.09
-74.59
-121.7
-125.07
-155.29
-182.7
-217.12
-228.14
-190.99
-217.15
-232.84
-283.38
-297.86
-279.33
-257.89
-322.23
-350.67
-317.54
-363.32
-327.34
-355.21
-346.52
-413.93
-424.44
-353.3
-422.43
-450.83
-436.84
-419.29
-437.71
-483.74
-467.36
-448.22
-429.62
-508.25
-500.34
-461.57
-455.63
-472.73
-523.55
-518.57
-510.15
-480.72
-508.4
-518.53
-459.22
-524.87
-534.17
-507.2
-521.78
-527.78
-467.56
-503.24
-442.16
-493.77
-444.92
1072.64
-424.88
-439.85
-447.56
-444.32
-442.89
-484.1
-424.54
-453.83
-398.93
-428.37
-357.68
-353.77
-365.52
-333.38
-376.28
-342.97
-291.6
-283.43
-328.25
-278.13
-300.25
-236.64
-304.13
-276.98
-203.32
-241.71
-206.03
-182
-201.7
-186.22
-127.95
-188.76
-176.64
-144.8
-118.1
-81.39
-72.25
-101.59
-85.93
-20.1
11.03
-16.41
-20.52
-3.01
33.84
30.86
96.78
78.1
64.34
129.69
173.46
158.31
156.92
227.64
231.06
194.11
262.12
217.78
254.14
288.11
260.39
303.21
325.18
302.04
373.06
295.48
346.73
389.26
367.75
364.28
342.05
393.83
390.17
391.66
437.27
404.08
467.85
462.8
489.65
441.57
459.47
504.27
510.28
512.58
488.3
470.06
514.93
524.67
500.26
502.51
522.95
484.34
477.69
473.93
534.43
454.21
543.21
508.08
519.37
441.31
530.96
444.67
473.29
462.15
521.09
440.65
458.61
415.47
436.67
490.43
428.02
424.86
467.14
400.95
360.87
429.56
336.09
398.27
364.63
342.49
356.1
283.69
300.11
297.62
261.15
328.24
298.67
270.7
196.07
183.32
198.13
247.75
146.95
201.51
180.46
131.79
161.26
73.47
65.05
39.29
88.18
80
85.51
37.29
-29.54
18.78
-54.57
-42.68
-12.66
-41.45
-83.48
-70.47
-94.71
-124.3
-93.42
-115.74
-213.93
-214
-192.9
-186.07
-211.98
-229.52
-284.24
-302.12
-284.47
-242.02
1199.82
-350.48
-369.23
-295.95
-310.72
-355.41
-343.39
-408.21
-360.04
-431.12
-408.27
-451.16
-453.89
-456.52
-414.22
-440.37
-474.76
-418.45
-436.04
-466.24
-513.6
-445.28
-528.53
-440.03
-473.95
-496.8
-535.96
-513.93
-540.97
-469.5
-453.2
-488.72
-487.32
-459.56
-503.35
-516.62
-465.94
-449.2
-454.03
-437.29
-509.46
-428.48
-483.31
-478.1
-483
-495.46
-448.5
-428.9
-476.35
-402.56
-450.63
-459.78
-432.63
-363.46
-373.85
-400.79
-388.44
-370.49
-317.35
-309.22
-349.04
-267.72
-337.99
-303.4
-299.64
-211.65
-293.4
-188.38
-191.31
-164.24
-149.67
-164.03
-168.21
-163.77
-127.47
-112.11
-101.12
-74.6
-76.87
-108.62
-75.37
16.91
-61.83
-39.94
2.91
-0.92
39.14
10.76
66.31
101.5
103.9
145.97
102.19
173.41
119.97
170.82
199.79
165.09
186.61
202.08
205.02
277.49
319.31
313.33
305.8
314.88
299.99
310.19
388.5
322.99
352.6
418.18
363.42
392.13
405.42
389.7
384.09
437.72
448.45
433.4
498.83
467.16
456.07
516.55
422.92
468.75
493.79
520.27
440.26
491.94
514.67
526.93
506.57
460.92
497.36
512.9
496.43
521.7
471.24
482.93
494.37
484.09
449.62
487.71
471.94
511.4
437.91
484.21
511.21
438.55
447.69
469.17
443.59
429.92
384.01
456.65
399.79
410.81
386.67
385.85
378.67
351.81
370.38
339.34
348.68
343.68
263.48
1795.33
246.36
293.61
263.48
188.22
212.79
227.99
181.89
146.8
180.22
121.82
110.4
98.82
67.46
116.81
94.51
18.54
10.09
43.5
24.54
-1.48
-61.23
-7.29
-86.24
-59.86
-56.6
-47.35
-64.5
-107.19
-136.54
-123.14
-153.77
-177.98
-182.53
-164.76
-192.45
-260.7
-223.86
-289.85
-289.62
-290.75
-264.11
-353.42
-289.36
-334.99
-385.15
-399.34
-331.48
-388.29
-365.81
-376.84
-419.08
-426.01
-388.99
-423.95
-428.85
-435.56
-418.44
-473.7
-479.94
-510.15
-520.22
-479.65
-461.05
-490.91
-487.4
-442.02
-490.78
-475.56
-458.14
-499.36
-470.05
-528.44
-506.73
-517.63
-498.11
-535.11
-524.91
-450.04
-515.03
-453.89
-489.77
-473.91
-461.44
-509.84
-483.96
-460.65
-481
-425.75
-399.63
-447.54
-471.03
-435.03
-441.06
-386.14
-369.14
-386.27
-321.58
-345.54
-300.65
-361.39
-295.75
-321.08
-304.67
-290.46
-265.95
-309.74
-208.44
-234.62
-181.15
-224.15
-206.5
-196.12
-188.31
-191.58
-136.25
-163.2
-97.64
-144.29
-83.09
-76.54
-34.52
-5.08
14.56
-25.02
34.59
1.79
-5.49
58.97
87.7
75.95
99.67
149
161.33
124.48
142.37
180.25
163.04
151.62
243.42
258.06
288.83
302.26
275.38
258.92
254.65
338.43
338.03
345.76
381.37
311.09
370.27
394.89
344.81
408.01
418.79
414.79
429.41
397.56
411.83
467.16
443.28
466.71
453.27
448.42
458.11
473.02
489.51
481.16
509.09
493.6
535.01
491.45
523
516.91
532.06
465.76
543.9
521.4
544.74
495.95
465.5
455.54
489.23
523.35
524.79
464.18
448.4
440.44
418.39
456.01
447.5
472.82
456.38
415.29
449
450.29
368.94
425.51
342.34
382.7
328.1
340.16
367.49
362.94
338.36
334.3
304.4
284.4
306.71
219.8
227.11
192.71
226.47
232.92
169.15
226.68
207.74
122.73
160.73
122.24
95.96
126.11
128.46
70.24
55.22
81.78
13.41
-2.89
34.99
17.41
-41.32
-93.19
-52.96
-59.05
-101.12
-120.91
-149.53
-99.63
-204.84
-128.07
-207.16
-239.15
-186.34
-209.87
-250.68
-229.08
-272.04
-265.35
-329.38
-275.02
-357.27
-331.73
-333.53
-355.1
-408.12
-392.62
-346.75
-415.21
-359.3
-400.57
-450.45
-419.7
-423.67
-429.9
-470.23
-440.26
-415.48
-438.34
-474.45
-425.27
-467.57
-435.86
-489.66
-536.65
-529.22
-473.97
-529.84
-503.37
-507.28
-463.07
-485.65
-454.88
-492.38
-453.06
-531.46
-471.34
-476.14
-460.88
-452.33
-517.3
-496.47
-467.51
-415.65
-485.96
-477.17
-476.53
-393.5
-404.8
-388.64
-385.91
-416.23
-410.17
-382.03
-366.54
-372.61
-347.04
-305.37
-326.13
-356.59
-320.62
-347.92
-261.57
-279.14
-266.28
-251.9
-268.07
-249.14
-172.62
-211.92
-194.35
-126.52
-188.98
-95.38
-90.62
-156.84
-99.51
-35.77
-43.37
-17.53
-86.63
-32.54
-55.45
1498.61
45.07
15.84
93.3
39.54
45.95
124.05
150.07
142.33
172.19
189.52
157.06
157.25
145.69
255.06
189.32
206.94
234.06
309.15
251.36
328.93
260.47
329.73
360.53
303.52
370.16
351.19
332.46
413.49
388.61
368
369.47
366.53
449.01
419.98
405.26
471.9
463.66
481.07
472.1
493.03
430.21
442.94
524.2
519
485.22
524.04
449.36
485.15
488.58
519.33
497.74
473.54
498.19
486.88
514.09
505.08
508.75
515.42
522.31
452.2
516.31
484.02
507.79
446.89
509.82
444.96
464.72
446.2
391.22
405.62
398
441.3
376.71
362.91
387.1
401.83
361.02
326.39
303.1
326.09
274.48
296.43
328.37
302.57
258.76
275.48
206.03
194.68
203.62
157.03
183.08
133.4
174.7
96.74
113.04
105.89
137.31
104.71
36.32
85.11
18.38
5.53
-37.26
-32.13
-45.1
-2.42
-2.52
-41.43
-29.32
-140.45
-89.24
-97.82
-122.81
-131.59
-163.11
-130.14
-184.79
-196.15
-269.97
-212.02
-295.09
-262.26
-284.14
-272.56
-312.91
-306.97
-272.34
-312.51
-372.2
-399.36
-367.75
-334.13
-412.2
-373.66
-437.74
-407.24
-411.49
-409.65
-467.67
-414.5
-417.98
-435.19
-433.38
-461.59
-437.46
-467.8
-448.24
-464.55
-529.89
-489.8
-528.43
-510.58
-480.3
-486.57
-515.39
-498.26
-511.14
-526.2
-478.76
-539.28
-509.82
-537.52
-444.02
-511.9
-512.78
-472.06
1028.73
-470.63
-430.55
-429.1
-418.96
-447.13
-434.71
-418.73
-426.05
-452.83
-352.59
-400.5
-343.04
-335.58
-392.11
-376.76
-341.34
-336.11
-331.73
-335.53
-271.06
-309.17
-252.18
-284.23
-258.84
-228.93
-209.7
-183.22
-218.99
-185.22
-209.06
-136.73
-142.19
-84.52
-153.45
-69.39
-65.2
-107.91
-13.44
-71.91
-23.78
-20.48
-21.23
34.05
65.33
69.16
92.67
130.46
57.27
118.5
171.35
172.66
204.38
133.62
195.9
217.91
253.42
219.37
251.28
274.79
235.38
283.1
252.15
276.25
333.6
380.15
312.66
399.68
370.56
368.04
346.47
367.4
387.07
445.23
382.22
394.3
473.81
426.45
447.58
478.58
494.79
432.72
436.3
492.4
478.67
532.08
512.23
500.25
474.85
504.52
496.22
545.63
510.55
503.79
503.71
470.42
471.24
528.59
519.63
534.19
443.32
493.26
499.44
436.61
472.68
471.39
510.66
504.3
405.43
435.02
442.34
435.07
461.51
430.9
379.58
410.39
340.34
351.2
328.78
395.01
307.12
326.68
333.99
307.08
334.69
242.45
249.51
284.54
288.59
185.78
265.53
215.66
235.09
186.6
131.97
129.26
150.8
113.23
156.42
134.63
120.74
91.35
40.23
-9.38
21.96
-17.91
14.09
15.79
-21.46
-21.47
-109.05
-94.98
-119.57
-131.21
-179.74
-124.23
-197.49
-172.65
-190.57
-159.06
-259.74
-260.58
-280.11
-255.35
-262.74
-318.74
-275
-257.2
-270.97
-322.01
-342.05
-361.49
-339.53
-377.65
-348.06
-392.04
-383.42
-422.34
-396.64
-419.88
-422.35
-463.42
-476.71
-459.24
-419.24
-508.71
-515.09
-494.86
-440.9
-492.8
-464.52
-472.38
-460.69
-483.04
-499.96
-491.86
-510.01
-522.46
-487.35
-535.84
-492.14
-454.96
-533.37
-473.39
-478.18
-439.47
-503.49
-503.89
-457.88
-499.65
-470.7
-502.67
-484.74
-471.59
-470
-400.43
-444.86
-418.13
-358.97
-431.65
-409
-391.5
-393.45
-406.54
-392.4
-381.6
-372.38
-348.96
-296.96
-322.12
-230.94
-229.33
-208.53
-206.52
-185.15
-161.95
-174.92
-177.17
-179.62
-131.47
-151.54
-76.94
-86.25
-140.78
-52.69
-30.67
-86.94
-52.23
16.45
-7.56
37.2
0.08
89.57
78.37
55.3
69.66
78.31
69.84
122.76
135.87
151.27
217.39
195.68
243.62
223.4
183.81
284.11
219.92
292.48
287.81
257.34
344.27
294.86
355.13
341.32
383.32
378.84
323.5
351.79
344.76
368.43
401.81
372.95
390.01
387.04
476.46
403.58
483.25
470.73
432.08
456.37
488.84
440.86
449.51
481.87
508.84
516.06
505.83
533.78
548.65
521.18
475.51
485.04
469.08
496.46
490.94
485.94
503.28
515.37
484.83
485.07
524.1
502.93
517.75
441.66
433.06
468
434.08
478.84
458.26
471.72
372.49
378.45
411.23
363.35
404.15
365.19
319.86
338.07
332.49
319.19
319.2
347.62
1753.38
313.17
246.97
226.08
262.97
231.74
254.77
188.41
215.67
178.87
120.06
127.34
170.91
139.11
103.45
76.18
104.68
96.12
51.73
42.17
-27.32
-19.02
-1.45
-87.54
-35.62
-99.1
-82.59
-121.51
-108.62
-77.9
-147.83
-143.46
-155.65
-154.06
-170.86
-188.7
-203.59
-222.51
-207.34
-228.97
-312.9
-316.95
-328.39
-288.65
-344.28
-349.27
-322.78
-391.45
-390.14
-374.17
-368.06
-446.55
-381.91
-403.41
-406.07
-393.1
-449.71
-439.6
-411.5
-501.2
-459.34
-471.61
-469.15
-528.86
-452.73
-449.42
-461.81
-531.89
-469.22
-484.37
-456.58
-520.69
-492.32
-480.37
-480.55
-528.54
-453.68
-498.69
-488.95
-505.44
-517.03
-504.42
-520.17
-457.39
-499.95
-457.96
-473.74
-417.66
-488.1
-468.24
-409.15
-437.98
-402.75
-390.98
-360.84
-420.54
-356.46
-341.9
-393.24
-332.32
-288.81
-347.58
-326.71
-280.35
-329.09
-271.89
-309.64
-225.96
-287.11
-205.83
-195.57
-161.41
-162.18
-209.81
-142.56
-109.68
-144.48
-131.19
-91.79
-113.92
-39.46
-33.96
-78.34
-18.42
3.24
43.05
34.6
6.99
9.24
113.41
48.72
92.7
157.75
171.99
158.24
194.94
209.08
162.63
171.04
167.03
190.92
264.42
280.14
300.06
319.77
239.57
307.82
272.49
363.55
310.89
326.17
362.65
354.26
374.53
374.54
384.82
443.41
439.21
373.13
476.95
448.48
471.06
466.61
442.81
495.48
474.9
491.58
1982.11
496.75
478.85
503.32
512.51
502.03
514.75
458.42
502.16
504.37
522.51
546.91
452.16
470.01
541.58
451.36
464.58
507.2
492.91
510.09
490.34
451.62
450.56
483.55
421.56
425.25
438.39
391.39
430.93
406.24
456.89
427.97
385.41
412.41
371.61
372
396.05
308.64
348.17
300.01
328.4
335.86
234.41
228.8
239.04
262.05
190.37
167.69
174.29
207.42
222.83
132.25
163.07
169.19
110.58
76
84.99
93.54
59.24
30.56
0.67
-16.65
31.61
-37.81
9.49
-66.96
-41.01
-90.35
-109.19
-125.63
-110.03
-90.19
-137.66
-160.58
-178.36
-220.02
-191.13
-218.26
-187.67
-235.57
-276.53
-282.65
-269.34
-285.71
-303.79
-297.66
-380.86
-365.17
-348.82
-319.23
-328.04
-336.95
-397.38
-389.94
-455.86
-391.31
-411.05
-428.52
-476.25
-454.27
-427.43
-503.28
-486.06
-492.32
-450.12
-507.84
-535.24
-509.92
-475.64
-461.48
-522.66
-524.91
-463.19
-473.23
-523.37
-452.83
-458.2
-488.9
-505.89
-474.33
-508.19
-491.96
-506.27
-471.99
-521.41
-438.02
-445.09
-424.73
-424.85
-479.3
-481.53
-436.76
-399.86
-444.42
-371.93
-412.92
-344.14
-359.48
-358.57
-361.46
-318.83
-318.13
-358.64
-336.81
-292.5
-303.88
-248.83
-301.14
-280.97
-271.97
-213.27
-197.71
-160.1
-161.87
-187.22
-150.43
-172.2
-173.97
-88.4
-130.96
-66.87
-37.1
-11.59
-0.31
-34.26
-32
-9.63
44.84
-6.92
69.36
39.51
76.08
79.61
67.07
126.95
104.63
99.71
160.32
199.42
152.75
215.49
200.22
243.32
227.61
270.17
233.13
269.31
292.4
316.92
295.79
284.09
307.8
402.81
374.03
422.98
343.84
357.64
375.97
383.69
429.66
385.37
425.39
401.75
455.42
465.14
424.6
504.24
498.78
441.78
432.78
506.27
466.87
472.85
522.49
526.08
535.26
480.34
519.81
527.91
524.97
486.39
469.64
489.05
459.34
511.28
537.93
494.34
465.6
497.64
475.02
441.91
481.24
455.73
485.2
465.62
485.18
446.77
390.56
423.48
396.82
430.56
363.9
370.24
342.86
375
390.65
377.78
315.71
326.89
332.84
325.38
308.23
233.12
258.88
254.37
231.61
237.31
209.13
202.61
165.97
128.49
100.25
103.11
135.74
119.55
81.34
54.27
-1.63
-5.55
-13.2
18.22
-28.5
-30.3
-87.64
-34.74
-88.53
-83.99
-111.88
-155.78
-90.22
-158.33
-208.81
-200.33
-216.47
-181.85
-238.81
-262.87
-291.28
-252.67
-302.96
-252.57
-290.75
-343.84
-322.73
-324.69
-314.08
-324.08
-352.91
-408.72
-397.59
-436.42
-410.53
-388.9
-376.23
-448.15
-435.39
-469.18
-440.29
-492.68
-471.62
-416.57
-431.81
-476.83
-527.1
-495.54
-534.91
-477.69
-493.87
-457.55
-525.51
-464.5
-528.79
-491.94
-497.09
-481.67
-545.19
-478.37
-488.26
-482.06
-442.03
-512.94
-447.5
-482.58
1048.55
-453.39
-444.36
-490.34
-435.18
-417.26
-393.36
-410.83
-405.36
-393.6
-438.79
-409.03
-430.85
-415.19
-405.59
-349.83
-357.28
-375.72
-277.44
-330.08
-259.64
-290.53
-283.92
-272.17
-210.52
-277.9
-174.11
-251.94
-232.72
-156.54
-195.05
-199.16
-103.23
-120.88
-68.02
-104.32
-78.04
-52.53
-92.7
-10.08
-3.32
-2.99
16.3
51.19
-4.57
52.92
44.94
61.42
95.3
153.75
110.84
178.66
205.66
147.54
215.22
189.43
238.2
205.28
195.53
243.81
305.57
307.07
256.11
338.97
300.38
352.51
365.26
388.17
399.18
405.37
365.74
387.89
378.29
455.49
459.1
431.56
456.1
470.84
494.54
457.69
467.65
416.35
479.53
464.05
455.44
493
439.05
450.76
530.59
446.91
467
515.37
494.05
450.75
464.97
537.08
454.92
499.51
447.33
508.82
441.68
475.25
498
474.62
514.83
452.66
494.79
463.81
492.96
494.43
475.48
434.52
429.53
372.99
362.49
409.19
415.71
371.34
410.26
362.34
390.44
295.27
336.45
287.82
298.74
326.67
250.35
296.58
295.93
201.84
220.88
188.85
198.58
177.67
160.75
157.53
109.61
173.31
132.32
114.69
80.16
103.5
97.21
9.11
16.01
15.88
-15.13
-35.73
-82.41
-100.58
-45.96
-104.91
-65.07
-142.04
-88.78
-191.11
-159.31
-188.31
-186.45
-201.22
-238.87
-185.46
-277.36
-213.85
-215.71
-305.45
-307.12
1207.89
-315.91
-341.26
-343.85
-300.8
-323.03
-407.23
-424.11
-362.44
-437.35
-419.38
-390.45
-420.51
-402.17
-480.78
-462.19
-443.14
-433.15
-506.24
-436.29
-519.12
-456.93
-508.94
-454.75
-488.22
-528.31
-450.62
-503.49
-461.4
-521.33
-544.95
-478.64
-479.77
-530.22
-529.68
-533.23
-495.74
-533.47
-463.46
-437.21
-432.33
-470.07
-493.51
-420.84
-472.34
-479.65
-476.33
-449.26
-439.38
-444.38
-432.89
-367.97
-408.85
-426.57
-425.13
-399.01
-369.06
-328.34
-358.46
-310.57
-285.11
-314.93
-245.78
-252.26
-239.88
-235.68
-240.65
-269.97
-215.86
-218.53
-187.17
-138.55
-117.15
-187.1
-126.19
-144.81
-110.34
-82.85
-43.79
-67.27
-78.87
4
-0.54
30.78
0.55
23.24
76.64
73.25
74.41
100.85
108.01
173.84
119.02
168.57
202.4
206.45
148.66
185.81
266.83
283.16
257.71
292.2
247.54
279.12
324.51
303.83
371
349.56
366.62
325.33
353.77
342.53
350.09
387.03
389.65
431.11
469.02
436.63
430.81
425.62
486.6
426.64
500.75
479.73
488.57
473.31
482.18
448.99
501.59
535.28
466.17
533.03
464.55
462.37
491.45
476.63
547.32
469.95
472.15
525.64
477.07
514.71
480.57
488.87
530.28
475.06
495.27
481.43
436.76
420.7
423.18
457.07
398.54
455.5
409.17
399.52
391.68
402.27
391.21
384.94
408.77
308.78
320.9
333.58
336.99
294.85
339.12
250.33
288.68
257.42
261.44
243.85
173.39
247.6
177.03
197.75
155.62
132.87
178.42
151.65
125.86
54.87
43.11
26.32
69.2
22.78
16.84
-9.52
12.72
-6.91
-81.73
-70.58
-98.34
-104.79
-156.24
-76.38
-126.7
-174.84
-184.35
-218.47
-235.98
-204.18
-217.88
-223.23
-272.97
-216.83
-258.92
-245.22
-261.84
-338.6
-279.38
-342.86
-326.57
-396.37
-362.7
-334.29
-394.14
-365.64
-453.18
-395.83
-448
-447.36
-389.21
-489.65
-497.22
-425.92
-412.55
-510.93
-456.74
-467.62
-451.18
-492.48
-533.16
-512.79
-496.06
-517.6
-522.92
-453.82
-485.75
-510.23
-517.13
-505.65
-502.56
-514.48
-474.69
-513.35
-513.27
-478.9
-431.53
-520.89
-460.77
-484.65
-497.7
-471.46
-451.73
-448.38
-462.97
-414.47
-387.93
-442.72
-413.63
-435.86
-384.14
-387.46
-339.44
-306.65
-340.1
-332.15
-359.51
-280.09
-314.77
-240.86
-315.15
-211.71
-225.34
-189.77
-196.22
-218.12
-163.3
-138.16
-145.74
-102.16
-154.77
-99.35
-91.56
-56.82
-79.68
-30.05
-33.38
-15.14
-42.74
18.75
9.93
51.95
-0.81
49.82
84.28
112.38
91.08
157.8
179.01
187.99
160.98
148.43
197.99
162.95
243.96
279.99
278.29
256.81
250.77
311.86
307.43
304.06
362.15
352.6
355.68
304.39
375.14
382.43
393.9
425.48
384.56
394.63
420.39
445.59
421.24
412.13
421.72
484.74
487.42
447.76
503.92
1927.86
514.02
444.55
444.22
525.98
510.45
484.09
522.32
527.34
547.76
538.89
459.21
492
487.64
466.97
497.8
497.48
505.36
479.59
448.43
477.51
463.28
482.54
468.35
495.82
474.75
478.14
426.2
380.52
423.21
431.29
382.83
363.11
394.36
356.77
359.3
334.48
349.24
343.27
334.44
338.54
341.08
331.56
255.19
245.98
260.61
196.17
260.44
174.11
181.05
139.55
149.55
188.57
88.84
170.37
58.9
92.11
27.65
97.13
40.96
58.6
3.67
18.42
18.79
14.22
-8.71
-53.23
-72.28
-65.35
-100.92
-162.73
-172.01
-104.23
-194.18
-162.56
-151.08
-217.06
-230.78
-255.24
-273.4
-268.09
-219.22
-277.74
-300.26
-317.86
-290.03
-371.4
-296.22
-376.42
-327.58
-373.62
-347.68
-428.76
-363.37
-453.95
-389.84
-470.78
-417.7
-443.8
-407.15
-455.92
-431.96
-485.77
-480.78
-507.54
-487.29
-456.42
-513.66
-458.1
-460.54
-471.01
-533.73
-486
-525.29
-473.82
-454.03
-484.94
-495.43
-516.76
-462.81
-466.52
-498.18
-504.71
-493.23
-514.91
-456.18
-493.41
-457.28
-482.36
-447.1
-423.6
-487.41
-426.71
-423.72
-454.83
-361.32
-400.8
-343.97
-349.03
-360.05
-345.3
-301.55
-369.59
-314.55
-336.63
-331.2
-297.29
-309.22
-291.71
-246.37
-224.22
-190.81
-208.92
-185.8
-154.33
-177.83
-116.74
-129.26
-150.07
-86.79
-73.8
-103.85
-109.68
-90.09
-37.28
-22.28
15.88
1520.85
-19.17
80.02
52.27
90.08
44.95
75.75
141.24
112.03
151.58
160.12
219.72
230.69
163.51
202.22
256.46
281.43
254.55
285.98
283.31
327.83
287.3
357.88
314.76
323.02
384.78
394.26
342.93
345.23
362.24
410.61
411.06
424.73
457.47
452.49
439.69
481.87
427.64
494.84
450.93
449.01
438.13
467.43
434.02
453.13
469.51
542.47
458.63
524.3
465.6
523.74
519.62
463.63
540.81
452.41
546.6
541.34
463.52
499.73
440.11
532.38
456.18
477.74
423.19
478.61
451.01
501.68
398.79
404.51
388.77
401.81
451.77
432.96
369
371.51
345.7
348.14
330.7
342.94
299.79
318.99
308.97
324.78
264.07
240.34
220.97
265.75
226.92
175.55
187.06
164.97
154.82
213.68
123.11
143.12
120.3
63.22
115.09
117.72
60.93
60.73
78.83
-10.68
-10.26
-43.22
-48.73
-22.96
-94.72
-101.26
-35.61
-140.32
-87.27
-99.52
-97.72
-133.37
-153.78
-194.55
-243.39
-219.94
-261.29
-279.12
-240.17
-251.55
-319.55
-309.3
-331.38
-281.64
-309.06
-325.46
-361.53
-330.51
-359.98
-404.4
-409.04
-374.78
-405.77
-411.42
-451.21
-472.31
-466.61
-457.64
-461.67
-484.74
-481.01
-460.73
-501.84
-453.33
-482.22
-444.09
-538.7
-520.46
-544.49
-527.42
-516.58
-452.61
-519.01
-462.37
-471.34
-537.66
-458.76
-537.33
-458.5
-516.65
-445.37
-473.96
-500.11
-495.74
-486.73
-477.17
-507.16
-408.43
-468.36
-420.1
-445.89
-437.7
-464.18
-377.92
-423.25
-432.88
-426.04
-404.38
-365.2
-302.61
-316.1
-369.6
-267.55
-351.52
-249.38
-267.24
-285.06
-206.29
-226.76
-277.07
-207.87
-190.16
-216.65
-215.3
-121.84
-148.86
-172.71
-102.24
-103.34
-124.61
-69.89
-99.49
-62.4
-33.1
-11.9
27.17
60.85
75.33
59.13
33.98
51.16
65.57
76.81
128.44
170.11
132.84
124.57
140.15
226.68
247.59
243.92
203.34
266.61
230.79
281.82
278
266.56
287.12
360.27
306.55
365.35
376.39
403.32
330.97
391.32
431.97
367.43
408.37
447.52
394.99
413.61
483.57
401.83
493.44
490.88
475.93
510.66
478.14
464.39
464.32
487.67
493.56
468.71
518.76
520.67
509.89
461.38
521.54
543.71
491.71
499.91
498.01
510.33
448.9
534.36
438.47
510.08
487.16
463.86
490.6
507.93
406.92
493.27
489.54
438.88
450.85
392.25
451.74
371.52
346.58
364.6
379.65
406.05
346.8
293.57
302.4
341.55
258.29
299.06
297.93
221.25
293.44
227.79
276.68
175.03
174.74
149.75
156.12
138
136.28
121.48
121.43
118.69
93.72
90.6
65.77
7.37
19.58
-27.41
7.72
-42.33
-56.46
-23.06
-70.86
-39.26
-97.21
-115.93
-141.74
-93.57
-177.71
-183.69
-227.07
-203.25
-238.52
-218.86
-261.83
-276.32
-230.11
-258.23
-268.48
1227.19
-334.26
-313.8
-315.47
-301.93
-394.49
-351.63
-401.55
-420.37
-373.31
-442.99
-438.17
-463.82
-456.75
-412.36
-486.05
-483.99
-463.42
-496.62
-472.55
-479.88
-428.49
-488.52
-496
-518.16
-510.86
-482.48
-499.25
-485.58
-541.6
-481.27
-491.76
-472.98
-468.91
-502.38
-456.9
-474.85
-514.04
-454.29
-502.8
-460.97
-508.82
-517.65
-466.48
-485.71
-497.9
-443.57
-396.29
-439.63
-436.5
-393.82
-425.87
-404.73
-354.43
-345.41
-335.62
-356.22
-331.17
-327.2
-319.19
-305.59
-313.97
-260.45
-279.02
-301.71
-273.88
-294.74
-204.72
-206.41
-210.2
-190.66
-220.77
-129.79
-139.75
-140.58
-131.74
-133.66
-98.65
-104.64
-19.96
-69.52
-29.66
0.6
-35.63
10.28
20.49
91.17
68.6
74.48
113.34
145.73
167.41
176.32
186.55
200.87
137.56
154.25
175.3
178.57
227.25
252.52
256.71
261.06
253.16
251.39
280.7
329.58
292.9
307.2
370.82
383.41
352.47
405.02
373.86
369.09
367.5
467.87
406.26
406.48
479.45
426.09
486.83
507.6
466.28
484.25
479.14
476.36
466.64
489.14
491.65
510.76
543.63
479.97
532.72
518.27
466.34
528.71
524.99
507.33
523.84
519.63
526.81
452.85
520.93
512.47
510.99
518.32
454.24
455.19
481.24
432.02
439.84
386.64
472.91
402.77
371.78
411.66
345.18
363.65
355.88
325.54
335.26
392.66
351.79
306.43
325.03
346.87
1827.42
242.75
220.49
232.73
197.52
259.94
225.84
177.52
222.99
174.66
189.76
91.59
124.91
99.71
120.2
33.74
89.33
8.6
1.32
-11.55
31.71
37.38
10.9
5.27
-11
-23.9
-60.43
-143.16
-68
-125.87
-119.53
-148.48
-215.81
-174.54
-205.9
-172.37
-189.48
-272.57
-289.72
-266.04
-247.71
-330.33
-318.77
-286.11
-323.73
-331.27
-340.96
-356.92
-383.19
-399.5
-418.25
-366.08
-426.66
-445.36
-443.89
-457.92
-474.91
-484.23
-449.35
-503.77
-458.21
-484.34
-504.23
-460.03
-449.26
-457.61
-490.8
-456.4
-529.54
-528.28
-496.25
-463.32
-470.5
-494.38
-537.58
-517.57
-503.28
-507.69
-527.69
-517.97
-502.72
-447.4
-463.25
-446.64
-423.78
-478.96
-498.75
-456.44
-443.86
-472
-448.12
-386.29
-374.86
-362.3
-379.09
-356.41
-357.34
-368.77
-382.66
-299.21
-288.73
-323.09
-298.89
-288.71
-269.84
-240.18
-243.69
-266.53
-222.78
-182.32
-197.37
-240.37
-135.43
-210.6
-143.03
-139.21
-149.38
-97.97
-80.47
-50.18
-90.73
-94.67
-71.42
4.04
31.48
-39.8
-15.6
58.8
78.34
77.68
88.94
119.63
114.87
83.68
155.14
156.65
184.32
208.68
209.88
225.82
228.93
236.94
233.73
227.73
295.04
268.27
351.46
352.06
327.96
317.84
356.85
382.56
334.42
331.41
355.93
404.47
375.34
385.42
468.91
462.55
489.89
449.3
440.33
479.87
485.77
439.89
489
450.72
443.8
507.21
442.75
453.12
479.36
450.05
530.05
463.64
539.72
507.25
461.09
508.6
534.71
524.59
456.31
459.34
465.33
475.34
521.35
449.66
498
454.62
458.75
431.51
426.46
442.03
403.68
445.48
384.01
381.23
354.28
389.36
382.2
411.37
376.57
383.15
305.32
325.63
277.08
318.88
264.53
321.93
251.23
298.42
250.4
267.59
237.29
188.23
156.6
185.19
190.03
139.22
176.5
124.33
58.62
130.57
66.41
68.09
58.99
-15.23
38.12
-51.05
5.47
-24.84
-95.82
-40.72
-94.07
-60.38
-143.39
-172.43
-111.33
-141.45
-160.29
-219.21
-236.45
-237.2
-203.04
-239.35
-237.78
-258.8
-260.82
-261.54
-270.45
-277.27
-287.73
-359.05
-344.76
-358.8
-331.38
-367.2
-386.56
-414.9
-381.23
-387.9
-447.87
-392.7
-390.89
-483.37
-408.83
-472.79
-481.66
-446.78
-474
-504.43
-526.41
-463.15
-533.04
-498.48
-479.41
-455.18
-460.64
-527.7
-471.1
-547.12
-522.5
-450.41
-526.2
-483.3
-541.61
-476.97
-481.4
-449.64
-433.32
-441.22
-462.78
-441.53
-482.7
-425.62
-399.42
-440.64
-419.05
-388.98
-456.53
-436.87
-431.04
-437.62
-400.39
-341.2
-363.27
-386.15
-373.77
-291.61
-271.52
-342.04
-303.6
-294.34
-268.44
-255.45
-275.65
-187.39
-240.5
-244.82
-205.38
-168.27
-149.1
-110.13
-150.99
-107.41
-112.19
-107.64
-93.04
-23.65
-38.94
-56.74
-8.12
1480.27
46.94
77.78
39.08
93.8
87.17
79.62
78.13
173.5
134.04
168.88
155.62
196.51
172.91
201.01
209.9
193.08
296.28
308.43
240.93
322.93
332.22
289.55
330.98
303.11
329.98
393.14
401.74
356.07
383.51
368.83
431.66
409.41
375.93
462.74
388
410.18
494.68
467.25
457.57
499.22
475.78
501.46
455.68
468.85
489.06
528.43
528.02
535.26
475
454.39
511.93
497.72
521.14
477.36
449.54
525.4
515.19
502.61
447.65
474.93
444.7
472.31
503.42
467.79
447.29
466.09
415.8
398.19
426.72
438.04
405.83
382.96
377.48
403.02
374.87
343.55
390.05
350.35
292.91
369.02
332.98
345.86
293.82
263.6
311.02
268.08
251.19
207.14
243.87
221.22
198.75
141.5
126.85
104.53
150.99
158.44
57.36
39.38
38.85
24.72
69.13
58.48
-3.65
-17.27
16.66
-79.3
-80.61
-45.38
-107.37
-49.03
-89.64
-109.6
-99.94
-134.04
-147.22
-222.21
-145.82
-228.43
-256.27
-239.12
-266.27
-282.52
-228.14
-259.83
-253.55
-323.6
-311.94
-370.5
-324.91
-353.14
-414.43
-376.86
-425.78
-431.75
-445.66
-410.26
-443.67
-435.86
-446.42
-491.37
-410.33
-431.4
-494.76
-482.42
-513.62
-481.32
-506.35
-443.17
-454.34
-473.41
-515.27
-528.71
-485.49
-462.72
-508.57
-495.37
-450.29
-487.07
-483.04
-469.78
-459.41
-514.93
-451.2
-517.96
-478.11
-504.29
1053.08
-468.22
-424.55
-421.6
-456.84
-467.79
-455.74
-468.14
-407.58
-432.16
-397.27
-390.6
-353.21
-396.29
-348.24
-315.72
-388.32
-289.72
-347.2
-275.75
-281.76
-297.19
-308.3
-232.63
-213.61
-271.57
-211.75
-247.93
-149.21
-205.31
-144.28
-189.1
-84.41
-146.31
-131.29
-91.08
-117.42
-17.16
-78.3
-45.42
-32.91
16
17.36
14.4
36.74
87.85
48.39
64.72
71.12
161.98
171.61
131.44
206.22
193.36
217.93
167.08
209.85
218.12
196.25
237.37
286.97
275.48
259.29
296.91
323.37
289.81
368.73
361.34
336.22
332.85
377.56
430.81
399.56
365.28
371.12
458.56
460.99
476
473.95
502.6
484.15
494.53
455.49
522.16
509.2
453.95
525.35
520.62
471.31
466.47
485.68
506.33
461.36
549.32
545.09
498.45
544.11
490.93
486.28
495.82
480.67
491.24
522.5
441.07
501.92
484.67
475.28
492.12
404.89
479.78
451.32
455.43
452.94
458.56
359.55
355.66
395.02
404.16
376.4
342.24
379.59
365.57
349.41
268.01
335.86
260.08
301.6
275.76
285.56
243.92
260.66
216
215.25
187.01
203.28
192.6
148.06
82.68
142.75
125.1
120.76
17.43
61.83
47.38
40.19
9.1
-7.19
-47.62
-51.42
-33.99
-104.07
-90.46
-121.31
-89.52
-85.04
-112.41
-207.21
-159.08
-200.23
-163.32
-186.05
-223.38
-259.43
-264.08
-309.17
-329.32
-266.69
-289.6
-286.55
-340.06
-302.67
-357.91
-370.11
-416.94
-337.47
-383.79
-411.29
-384.14
-445.88
-380.54
-425.76
-408.73
-404.61
-488
-433.57
-468.34
-499.22
-438.3
-503.98
-480.02
-453.17
-475.07
-461.86
-462.54
-535.05
-501.66
-502.33
-456.19
-479.99
-477.9
-502.06
-452.18
-454.71
-446.84
-452.57
-441.63
-458.47
-499.99
-474.85
-508.9
-444.22
-466.86
-461.15
-493.98
-449.05
-428.73
-468.11
-376.96
-375.53
-362.5
-381.38
-418.74
-320.85
-376.89
-386.26
-336.42
-330.8
-268
-266.49
-265.15
-306.27
-219.55
-215.2
-189.85
-220.74
-255.32
-219.54
-206.45
-161.54
-144.75
-106.86
-106.64
-91.16
-118.94
-111.85
-69.3
-51.45
-61.98
-67.44
-41.56
10.94
-16.41
8.77
40.31
89.99
133.97
111.11
124.12
118.06
127.23
184.7
202.07
159.29
178.78
260.44
226.07
262.48
295.13
260.18
249.04
290.18
267.35
355.89
298.64
298.62
392
391.75
332.12
406.92
402.42
429.27
431.8
462.08
422.77
405.21
473.03
464.68
433.59
497.2
439.63
446.12
455.16
493.29
436.34
527.61
470.24
454.07
469.55
534.57
544.86
462.57
451.75
453.77
515.27
546.22
538.63
541.32
520.45
450.09
476.02
471.19
507.58
483.99
426.72
430.85
418.7
434.63
461.86
420.16
450.87
431.17
423.41
444.17
408.79
389.3
390.59
411.5
377.18
328.85
376.99
340.47
347.56
273.73
1832.77
244.85
264.28
249.5
263.27
215.77
214.91
210.64
146.95
206.44
124.92
182.65
144.8
93.17
124.24
117.96
25.36
38.77
55.13
-0.65
-26.47
33.34
3.47
5.4
-25.91
-108.46
-36.14
-132.66
-151.39
-85.52
-153.94
-146.19
-129.66
-165.9
-181.04
-240.81
-182.36
-285.82
-224.43
-297.75
-287.47
-325.95
-273.91
-301.13
-358.58
-354.21
-327.78
-384.92
-340.51
-398.16
-436.72
-379.26
-397.07
-373.06
-429.73
-432.48
-476.61
-470.16
-444.29
-484.5
-478.56
-491.77
-478.5
-487.03
-492.94
-439.33
-484.43
-478.45
-530.96
-509.64
-485.54
-493.69
-547.1
-502.31
-472.45
-510.6
-462.99
-476.47
-523.13
-519.54
-483.89
-484.15
-455.01
-463.06
-471
-483.1
-491.5
-489.21
-487.99
-475.47
-424.34
-433.64
-400.1
-365.73
-354.64
-368.45
-384.4
-417.98
-335.46
-329.65
-358.41
-310.15
-319.44
-280.28
-283.22
-320.24
-259.75
-254.19
-199.3
-182.73
-233.24
-191.93
-146.53
-206.39
-201.25
-166.21
-127.9
-148.81
-131.36
-50.29
-29.57
-65.21
-52.56
-70.82
32.23
30.25
21.23
71.28
36.28
113
69.31
130.38
81.59
88.34
132.78
154.04
127.46
180.56
241.86
194.2
179.71
206.21
287.71
255.01
322.27
285.98
297.74
331.26
296.19
341.26
338.8
351.35
355.08
342.57
403.55
352.53
407.27
437.61
375.51
417.47
447.72
464.89
448.79
487.03
462.87
475.77
507.89
2006.49
441.8
505.18
499.2
463.95
461.28
508.7
475.95
547.15
520.82
506.35
478.49
483.54
547.27
473.75
509.98
483.23
537.73
477.5
475.64
498.72
432.87
512.67
471.72
471.35
433.71
491.07
483.02
423.06
410.58
453.63
414.48
418.5
401.63
354.43
402.36
324.82
348.71
341.54
330.09
284.62
247.25
236.1
275.06
206.92
251.32
220.81
216.48
204.36
139.61
196.17
164.62
176.79
100.64
146.64
126.22
69.74
25.18
94.35
84.72
25.74
-34.17
-36.5
17.91
15.49
-52.73
-89.14
-66.22
-122.52
-154.71
-166.14
-149.11
-199.43
-164.6
-173.75
-202.31
-173.56
-223.99
-200.86
-280.8
-215.38
-237.66
-267.01
-267.34
-274.34
-369.1
-344.24
-296.46
-383.03
-325.42
-407.46
-342.15
-361.54
-422.24
-368.43
-391.97
-420.11
-434.87
-457.65
-486.29
-422.35
-483.32
-483.71
-467.28
-497.02
-434.72
-477.56
-486.43
-442.38
-481.54
-525.95
-463.49
-541.35
-518.83
-509.97
-459.49
-523.31
-511.81
-475.87
-472.16
-472.68
-525.44
-439.15
-439.6
-438.57
-510.99
-492.08
-458.31
-420.09
-465.16
-475.11
-456.35
-387.27
-427.24
-447.9
-359.74
-353.28
-384.96
-420.6
-362
-331.96
-301.67
-348.88
-356.55
-259.47
-257.27
-328.53
-257.93
-210.23
-273.34
-267.67
-183.04
-234.58
-214.05
-196.74
-171.37
-169.49
-133.28
-143.28
-134.44
-104.42
-80.72
-34.06
-41.86
10.07
-8.41
1507.56
-0.53
26.49
86.41
59.29
68.87
131.91
97.83
142.75
131.51
130.3
180.14
162.65
240.22
182.13
228.25
241.75
261.18
220.07
273.34
263.49
273.26
260.06
339.01
344.46
374.72
384.21
323.72
400.78
388.47
383.39
377.08
380.65
407.98
428.85
423.38
465.2
437.47
498.21
486.85
421.77
473.55
517.29
451.65
487.04
509.32
459.45
507.73
531.9
525.41
516.97
460.11
467.23
486.22
490.16
522.19
539.95
511.22
497.08
451.73
532.87
438.1
487.63
432.16
482.91
451.22
413.82
442.27
480.68
422.96
407.8
422.77
462.01
383.8
425.04
373.94
343.52
342.42
382.71
377.04
352.42
310.22
304.96
304.58
252.95
274.66
261.13
238.8
185.87
258.04
213.59
220.21
175.86
136.66
149.75
114.71
136.85
85.03
117.07
84.47
106.93
40.24
62.75
13.4
31.54
-2
-14.47
5.89
-14.3
-77.63
-45.29
-68.98
-73.8
-122.52
-189.24
-152.45
-136.62
-236.55
-242.78
-257.82
-232.43
-249.83
-223.83
-314.42
-294.28
-315.02
-278.35
-352.12
-294.1
-310.49
-330.21
-366.08
-329.65
-336.57
-342.44
-431.47
-434.83
-440.54
-458.37
-471.21
-486.46
-398.23
-406.47
-509.24
-479.05
-458.52
-435.63
-518.8
-436.91
-504.69
-459.29
-507.78
-461.57
-453.38
-505.02
-457.53
-496.19
-488.97
-506.66
-526.65
-505.21
-452.87
-506.34
-509.46
-486.17
-434.72
-495.69
999.72
-487.44
-444.61
-477.28
-404.99
-467.28
-474.07
-398.24
-411.65
-432.63
-444.11
-387.01
-361.61
-334.54
-379.74
-374.07
-355.59
-292.69
-370.77
-288.95
-307.82
-298.71
-311.12
-294.19
-209.94
-285.69
-240.24
-186.53
-160.53
-197.96
-214.43
-166.78
-99.34
-144.49
-144.87
-62.42
-116.49
-106.41
-78.47
-78.68
19.82
41.97
48.44
6.85
21.99
12.72
111.53
86.91
120.35
99.32
94.12
140.08
117.42
178.13
211.98
157.24
201.12
259.03
244.38
205.95
250.04
275.89
306.89
260.87
358.02
356.04
372.32
340.44
401.31
385.88
399.82
422.63
437.72
427.4
390.05
396.48
415.55
485.52
484.29
489.31
446.66
447.85
465.76
430.59
435.4
493.05
464.97
516.56
490.68
541.78
502.34
454.56
469.66
529.74
456.66
475.84
467.34
531.96
540.36
496.5
491.11
481.26
456.44
442.29
504.14
500.61
469.26
427.24
444.21
478.88
415.86
468.11
447.77
429.25
440.86
391.41
397.97
422.53
407.82
406.35
348.58
375.16
290.55
290.25
331.33
325.57
315.77
232.17
297.53
252.35
229.58
207.1
220.8
187.57
170.06
182.57
177.61
128.84
71.73
120.87
127.09
74.45
32.47
39.35
-10
38.38
-32.19
-0.29
-39.78
-62.22
-110.44
-93.14
-59.26
-79.4
-123.46
-163.67
-187.61
-123.43
-162.62
-179.57
-215.33
-194.19
-244.7
-222.08
-292.83
-288.3
-261.53
1188.15
-340.21
-327.74
-368.23
-298.5
-359.73
-376.47
-421.94
-396.32
-414.19
-432.35
-448.55
-468.43
-421.09
-402.62
-445.77
-493.36
-464.17
-426.7
-464.39
-481.91
-486.53
-449.44
-461.67
-522.69
-463.08
-455.86
-451.26
-448.69
-531.68
-548.44
-486.49
-453.67
-485.65
-502.64
-467.2
-494.43
-458
-438.33
-461.38
-467.17
-501.11
-444.33
-452.43
-483.44
-420.98
-419.22
-416.88
-470.71
-377.47
-431.48
-368.47
-386.31
-436.79
-336.3
-350.93
-315.01
-346.42
-327.48
-370.46
-278.33
-292.53
-314.48
-248.96
-301.52
-261.38
-283.5
-203.97
-182.12
-219.38
-226.81
-190.9
-180.51
-180.87
-112.83
-71.23
-129.53
-109.71
-96.81
-5.58
-73.33
20.23
19.83
-41.99
-18.65
-2.89
15.04
48.55
93.6
118.51
64.04
164.83
157.16
196.61
193.18
171.5
225.96
185.65
248.02
190.26
210.77
224.06
266.67
259.07
327.6
328.08
318.9
330.53
306.12
380.88
331.02
418.68
380.76
405.9
434.23
432.65
385.36
461.84
439.59
410.27
413.82
443.74
469.9
451.01
506.1
484.5
455.14
480.44
472.87
492.92
522.59
484.74
468.17
487.58
532.76
534.63
527.96
476.42
455.27
460.2
445.11
489.04
528.12
521.3
526.67
431.25
514.29
419.58
453.8
410.93
453.48
467.56
480.42
395.87
421.59
405.8
449.3
424.63
402.99
352.67
346.17
312.14
335.23
331.47
295.24
315.56
1823.21
277.6
244.12
260.26
243.44
186.45
182.75
202.02
188.24
156.6
180.58
176.49
83.3
140.05
140.05
135.16
67.08
43.89
17.54
51.54
13
-45.84
22.18
-68.99
-90
-82.2
-84
-46.03
-65.31
-82.8
-158.36
-189.72
-121.4
-172.37
-205.56
-182.14
-206.92
-272.94
-293.41
-266.7
-314.26
-294.25
-321.89
-272.31
-292.01
-339.41
-300.82
-365.84
-329.02
-351.16
-401.14
-439.66
-363.31
-438.77
-409.37
-445.58
-433.84
-395.16
-409.96
-417.8
-484.43
-435.72
-482.33
-454.01
-522.22
-517.95
-455.57
-464.17
-448.12
-529.3
-539.76
-507.51
-532.05
-481.04
-530.69
-473.12
-466.38
-499.25
-504.45
-528.13
-481.29
-520.6
-471.77
-456.7
-503.18
-449.45
-455.19
-436.99
-489.14
-453.66
-459.67
-433.56
-370.5
-439.59
-405.9
-409.42
-384.33
-355.26
-383.02
-310.28
-371.86
-286.88
-364.56
-342.32
-342.97
-297.04
-293.74
-235.63
-294.65
-202.01
-262.49
-207.17
-239.76
-182.42
-195.12
-127.06
-134.25
-101.72
-88.53
-95.69
-31.14
-91.48
-60.88
5.9
-27.49
-25.47
51.11
5.08
63.29
46.78
55.86
69.97
105.53
72.26
92.02
115.1
177.89
168.8
191.33
254.66
231.23
281.83
256.98
244.15
287.17
319.5
276.36
328.48
356.95
299.45
359.14
372.31
355.7
407.03
419.92
390.96
380.05
442.85
463.68
467.82
458.45
437.29
475.68
440.35
421.69
442.35
518.86
2025.95
442.48
498.73
522.32
492.03
536.42
514.69
501.8
538.6
490.82
502.49
539.69
498.73
513.22
450.84
526.77
494.78
538.68
507.75
452.26
476.66
487.3
443.31
483.87
436.06
488.7
456.8
468.47
404.1
449.05
431.7
449.73
406.44
361.39
327.16
394.7
374.59
348.46
307.83
353.07
345.66
283.12
271.44
295.45
263.05
233.09
272.42
220.27
233.05
216.9
179.79
185.47
129.82
126.45
171.47
135.24
67.83
70.24
34.15
53.08
-10.03
48.73
41.25
-57.25
6.32
-85.97
-100.36
-78.83
-129.96
-90.21
-142.39
-163.03
-102.93
-138.43
-213
-162.79
-229.04
-238.57
-210.36
-264.43
-236.18
-269.85
-275.57
-333.43
-286.03
-330.05
-295.88
-334.86
-370.77
-347.52
-352.12
-424
-387.86
-365.77
-411.99
-456.54
-469.51
-477.57
-468
-430.35
-422.23
-452.23
-446.05
-497.07
-491.46
-514.41
-480.8
-468.06
-497.43
-512.35
-544.63
-474.89
-508.53
-472.44
-502.42
-493.26
-486.4
-489.44
-537.95
-467.86
-465.39
-445.46
-478.54
-509.32
-472.87
-503.75
-483.82
-512.88
-435.46
-450.58
-408.9
-438.84
-465.74
-439.31
-400.04
-423.99
-405.29
-424.44
-420.24
-356.39
-402.09
-330.98
-365.87
-302.42
-305.32
-328.74
-286.56
-252.29
-290.92
-269.32
-205.26
-254.84
-247.19
-148.11
-172.51
-176.62
-182.94
-179.63
-104.55
-151.72
-129
-128.82
-22.84
-25.5
-71.91
-65.13
-53.99
1508.62
9.29
30.9
36.76
118.64
101.68
119.4
113.87
133.35
158.99
197.94
154.66
143.77
212.58
250.28
267.67
290.02
216.86
314.51
320.1
285.3
347.74
337.02
326.87
383.35
318.2
339.28
401.93
404.45
347.79
371.79
442.77
395.27
440.23
448.67
417.45
486.37
500.34
508.96
498.74
456.48
479.75
474.46
505.93
473.13
528.45
503.48
449.18
511.37
518.63
496.65
453.65
454.17
510.79
543.22
532.82
539.99
540.34
480.5
486.04
517.77
520.32
427.76
449.34
475.97
426.6
418.51
416.92
404.71
464.12
376.36
455
366.55
445.63
404.59
373.62
373.82
327.33
366.92
368.83
372.6
362.63
263.39
304.12
276.9
276.76
292.46
281.82
215.53
242.6
149.27
168.77
151.12
125.09
152.78
85.81
99.72
50.23
66.58
74.16
31.14
-11.76
-17.24
11.83
-9.98
-31.73
-72.59
-21.04
-54.46
-67.41
-49.98
-153.01
-93.03
-175.1
-149.46
-185.48
-220.85
-214.63
-246.05
-236.06
-277.34
-290.34
-240.13
-324.42
-323.21
-346.69
-325.83
-333.84
-322.55
-348.3
-400.49
-331.62
-339.16
-437.93
-362.39
-401.74
-440.58
-435.37
-454.71
-446.63
-401.6
-496.53
-429.2
-436.06
-423.28
-460.31
-451.08
-517.04
-497.34
-493.57
-520.51
-516.3
-469.85
-477.79
-491.98
-517.42
-538.38
-525.53
-496.82
-532.93
-502.52
-510.42
-480.7
-519.23
-529.02
-525.32
986.12
-431.62
-482.9
-492.36
-493.4
-459.65
-430.6
-399.5
-383.1
-408.93
-432.79
-352.3
-350.1
-396.66
-370.22
-341.18
-362.63
-343.08
-280.89
-293.18
-288.72
-265.71
-245.18
-283.2
-266.88
-262.5
-178.06
-248.04
-220.85
-160.61
-188.58
-114.98
-150.11
-95.89
-132.75
-65.24
-40.59
-66.01
-84.56
-37.89
-1.66
26.85
-30.7
34.06
8.78
99.23
41.69
62.01
58.7
74.3
86.26
99.38
150.86
147.8
138.62
174.01
240.1
176.56
188.64
289.89
227.15
265.93
337.58
293.66
329.31
348.12
316.18
317.37
317.32
414.41
329.89
360.32
431.15
448.18
364.82
434.22
431.53
426.25
401.02
414.89
485.91
474.74
486.3
470.02
457.42
526.9
514.83
443.61
444.41
525.63
532.2
483.34
525.26
494.08
539.48
452.06
522.36
542.8
457.63
491.11
526.9
441.03
493.37
501.99
506.51
441.31
435.85
493.05
432.63
452.13
422.04
436.35
385.32
378.03
455.12
354.47
377.7
420.82
324.21
359.41
307.96
371.25
360.41
313.1
296.36
318.73
260.28
304.25
251.13
217.87
221.44
190.67
184.1
221.48
220.45
118.31
117.59
88.78
80.24
62.89
63.81
47.5
37.4
39.44
68.67
44.62
-47.63
-54.38
-30.57
-35
-17.46
-104.23
-66.5
-114.89
-160.3
-146.59
-175.28
-179.2
-181.73
-187.48
-248.19
-202.3
-216.7
-203.73
-251.83
-248
-297.84
1173.84
-338.01
-364.43
-347.52
-345.72
-383.8
-337.6
-376.47
-386.87
-381.43
-364.98
-401.96
-391.77
-385.91
-461.74
-437.26
-479.74
-456.23
-485.19
-497.35
-480.44
-525.77
-483.84
-473.02
-450.92
-532.97
-534.9
-539
-540.93
-488.49
-469.95
-499.28
-528.44
-492.41
-461.83
-491.49
-521.57
-537.12
-496.45
-503.44
-506.79
-501.06
-455.55
-467.61
-494.88
-433.1
-474.56
-463.89
-411.05
-400.87
-456.1
-365.37
-440.9
-425.46
-416.2
-390.23
-378.67
-368.42
-367.56
-291.28
-334.25
-297.77
-332.57
-314.95
-299.84
-293.81
-202.21
-191.61
-256.44
-196.23
-209.4
-143.54
-153.43
-127.96
-135.44
-136.64
-89.11
-99.44
-28.91
-17.14
-78.25
-62.35
-25.48
1.78
-30.24
41.54
77.9
84.49
110.94
54.85
68.68
160.82
179.8
173.19
143.27
178.51
152.87
175.74
266.52
266.71
250.3
224.85
223.9
233.88
285.12
301.71
342.2
290.39
305.77
367.4
335.04
413.44
345.23
343.22
399.66
374.71
445.72
431.69
424.94
393.24
457.69
425.8
439.61
462.37
450.41
493.56
432.39
529.24
491.62
452.46
493.37
541.99
520.45
507.36
474.99
520.12
528.6
518.42
465.27
462.08
444.65
464.46
517.52
487.03
477.95
516.63
499.96
427.4
414.68
463.49
497.83
428.27
450.04
400.82
427.91
367.67
357.95
424.03
409.42
399.11
394.59
335.83
327.32
288.34
276.27
299.72
325.17
1823.21
281.34
226.73
221.38
250.79
190.3
183.26
179.13
219.32
120.58
142.63
158.58
84.99
141.33
99.9
44.25
72.17
73.85
50.39
-8.86
-8.01
27.57
-45.98
-7.89
-21.91
-26.96
-118.04
-122.04
-128.89
-102.35
-135.8
-196.28
-159.79
-235.26
-203.76
-188.27
-266.54
-269.98
-262.57
-242.4
-274.43
-284.43
-328.13
-340.2
-309.28
-350.59
-386.1
-401.54
-407.8
-415.71
-394.19
-418.64
-394.47
-383.32
-454.56
-402.87
-466.1
-470.04
-415.11
-484.67
-420.97
-423.53
-501.22
-461.15
-529.8
-493.94
-480.92
-501.74
-483.94
-452.57
-449.04
-492.82
-509.36
-499.9
-531.57
-535.73
-469.79
-522.29
-468.34
-490.22
-499.36
-436.83
-476.34
-454.9
-516.17
-425.68
-446.21
-475.41
-439.73
-407.56
-434.23
-411
-408.28
-425.83
-424.59
-340.35
-330.5
-327.28
-402.05
-392.53
-332.56
-312.18
-280.23
-311.72
-337.66
-275.97
-263.7
-255.46
-234.71
-259.71
-182.2
-238.25
-160.8
-161.49
-194.27
-133.94
-173.94
-74.72
-131.89
-123.46
-28.3
-56.69
-72.03
-62.04
-17.86
21.8
26.6
3.95
101.96
38.41
44.91
112.83
70.38
174.01
150.23
195.76
186.07
185.3
215.16
182.4
273.44
206.99
225.71
223.49
265.76
341
344.68
338.6
324.46
291.37
332.82
383.56
387.72
340.13
417
378.99
439.56
461.43
469.06
455.2
474.16
466.63
481.17
450.96
482.64
460.43
1958.33
477.98
479.73
455.98
496.84
498.73
505.35
533.23
449.22
463.96
461.53
484.37
530.04
493.83
518.27
449.99
533.94
491.16
465.97
481.64
484.66
441.7
455.47
451.05
503.54
481.35
491.32
393.12
435.14
444.52
406.17
433.93
363.12
420.96
388.06
409.79
389.61
381.65
305.72
355.34
331.74
288.95
250.72
242.72
238.11
219.93
271.75
219.17
166.8
155.52
211.24
137.82
152.98
119.88
110.16
108.09
73.11
126.93
56.46
74.57
66.87
69.61
38.84
-44.2
-67.05
-21.29
-68.73
-49.88
-109.57
-116.29
-161.07
-117.84
-143.92
-156.72
-132.58
-189.26
-191.67
-253.78
-226.9
-193.39
-286.73
-291.17
-269.87
-267.18
-277.23
-265.75
-290.69
-315.37
-345.76
-396.23
-320.15
-359.57
-382.91
-361.74
-442.53
-419.82
-412.01
-434
-425.5
-465.62
-493.38
-497.03
-460.98
-519.08
-502.89
-512.07
-476.01
-458.56
-450.26
-493.86
-465.02
-462.49
-505.7
-530.62
-511.93
-480.13
-531.18
-547.54
-528.39
-450.12
-535.39
-490.6
-510.65
-529.01
-466.7
-515.84
-438.72
-417.07
-418.29
-501.19
-491.92
-405.94
-428.48
-457.88
-415.43
-407.76
-445.28
-347.33
-401.68
-403.72
-386.82
-317.44
-353.11
-340
-271.57
-323.04
-272.08
-298.32
-225.78
-251.13
-245.25
-178.9
-201.76
-230.98
-232.66
-201.25
-138.79
-118.22
-118.81
-139.09
-140.28
-88.97
-49.29
-72.25
-55.99
-17.75
-57.88
1502.2
67.59
42.81
33.01
60.7
117.54
61.75
148.42
171.96
134.45
110.28
195.46
168.11
187.62
167.31
202.6
246.98
270.44
229.45
256.56
307.11
331.07
340.34
355.32
312.45
371
353.55
319.79
329.28
372.39
382.22
367.18
431.36
428.2
407.18
455.41
396.75
449.35
440.58
419.2
454.43
453.26
434.32
507
490.93
495.41
478.47
511.65
465.21
535.05
483.28
540.08
503.28
539.07
478.5
497.52
505.75
534.3
450.27
503.77
493.28
431.88
510.56
466.69
501.71
458.91
441.23
485.48
443.38
470.67
459.25
413.39
444.79
378.27
438.23
368.02
338.63
338.92
380.89
386.27
345.6
287.58
325.08
283.76
256.03
257.93
228.57
242.01
266.3
263.18
224.98
216.25
179.76
134.11
113.97
119.6
154.73
89.62
56.89
48.19
80.02
63.09
63.37
57.47
-16.76
-61.25
-56.94
-28.14
-80.77
-43.1
-54.07
-144.84
-120.17
-164.08
-179.9
-185.44
-198.47
-233.12
-232.77
-227.15
-233.65
-250.3
-248.69
-256.46
-271.2
-292.29
-307.89
-345.76
-342.05
-345.92
-361.4
-375.13
-380.6
-390.49
-371.13
-424.6
-374.47
-428.7
-451.91
-449.91
-466.94
-492.63
-451.73
-417.79
-434.67
-458.09
-486.07
-488.67
-509.14
-535.95
-538.01
-473.49
-499.64
-481.73
-524.26
-511.49
-533.57
-536.42
-492.89
-540.5
-532.66
-505.99
-472.98
-495.95
-459.54
-439.46
-437.9
986.75
-505.75
-457.75
-415.51
-476.6
-403.45
-436.5
-454.64
-414.87
-417.25
-392.58
-405.84
-367.89
-396.4
-390.26
-320.73
-325.01
-310.12
-313.35
-351.36
-286.34
-255.26
-290.79
-274.91
-218.9
-195.01
-211.11
-155.27
-187.65
-212.04
-175.11
-119.19
-110.19
-83.65
-77.54
-43.56
-110.89
-51.08
-17.02
-50.07
-36.18
-9.89
11.89
76.06
13.98
72.86
58.58
75.51
116.36
94.63
171.19
185.02
118.23
220.11
142.85
156.09
176.66
201.54
283.53
287.12
303.37
260.3
270.02
290.56
367.39
324.13
387.53
363.51
387.81
410.35
394.97
436.11
449.08
386.28
431.08
410.13
445.93
477.24
488.54
447.97
485.09
439.24
426.96
432.6
449.02
464.22
444.69
442.14
510.64
453.36
472.86
480.22
465.32
471.81
498.26
508.81
519.77
475.6
522.79
521.11
526.97
473.05
435.59
456.26
472.35
493.04
449.97
464.54
428.55
422.33
479.02
467.98
453.2
364.26
375.76
354.32
372.61
334.45
373.91
355.57
296.32
373.61
330.38
313.74
302.82
306.84
236.41
277.08
209.56
228.19
229.14
222.63
229.94
216.45
159.25
168.23
93.18
108.24
107.91
114.64
73.45
66.95
76.33
38.35
-16.51
51.17
-40.68
21.33
-21.64
-26.79
-116.79
-38.59
-120.76
-148.29
-100.24
-103.4
-176.45
-151.22
-212.77
-206.53
-256.5
-261.97
-273.03
-235.29
-236.15
-271.07
1227.74
-314.1
-289.63
-322.98
-303.43
-356.59
-360.15
-390.96
-396.37
-432.18
-386.79
-401.29
-460.19
-427.18
-459.43
-420.85
-426.2
-474.15
-423.99
-481.68
-460.09
-452.3
-441.11
-503.35
-482.97
-454.89
-491.52
-472.4
-536.54
-534.1
-510.19
-510.97
-482.67
-491.98
-468.67
-497.07
-472.15
-519.88
-450.36
-448.91
-446.74
-463.42
-426.12
-505.29
-438.72
-438.44
-487.9
-422.74
-409.77
-463.61
-402.34
-428.44
-406.48
-393.69
-431.45
-332.88
-365.72
-348.76
-307.69
-319.27
-367.17
-273.35
-275.17
-303.85
-290.93
-282.4
-202.17
-222.6
-174.21
-171.51
-238.51
-171.64
-186.32
-200.24
-187.25
-171.84
-98.47
-53.14
-124.15
-23.66
-77.14
-32.17
29.08
-48.98
-28.39
-9.78
49.38
41.59
40.25
124.58
69.9
92.62
97.73
165.64
108.94
210.07
196.6
227.28
235.28
274.42
267.17
268.49
274.77
286.09
272.28
267.23
316.99
337.31
313.43
331.43
315.49
331.72
422.06
375.72
445.34
422.75
423.6
464.83
435.11
432.25
418.07
410.18
453.45
431.75
467.06
487.72
457.96
510.68
532.38
514.45
447.37
449.95
527.43
477.55
452.17
486.76
462.79
484.94
488.69
488.68
478.46
516.3
453.84
456.56
474.06
523.98
521.77
462.05
427.64
492.03
459.94
450.28
466.45
469.21
431
394.13
444.16
365.19
430.58
405.33
350.37
392.88
390.94
344.04
323.93
303.35
295.35
1754.16
319.49
266.38
247.16
268.77
184.15
223.65
149.92
167.65
209.56
204.17
137.5
111.03
126.38
53.33
111.19
34.19
57.4
48.1
5.97
31.76
36.51
11.77
-27.57
-41.42
-106.43
-124.98
-111.42
-91.24
-110.48
-93.59
-165.52
-189.99
-157.32
-203.91
-187.16
-196.36
-279.7
-232.31
-289.31
-303.87
-309.79
-282.44
-274.37
-325.47
-295.67
-308.8
-401.28
-391.87
-332.8
-338.75
-424.66
-425.43
-446.81
-471.65
-383.58
-429.79
-476.53
-477.64
-445.21
-436.21
-479.64
-446.03
-482.71
-448.96
-506.67
-531.4
-481.89
-502.08
-536.82
-522.45
-540.1
-489.43
-500.4
-467
-516.25
-509.51
-512.85
-460.2
-515.74
-537.51
-449.17
-484.46
-478.95
-443.65
-487.4
-441.72
-475.34
-455.52
-416.68
-385.1
-455.68
-461