-10.65
-10.65
-52.57
-52.57
-79.92
-79.92
16.3
16.3
41.2
41.2
50.85
50.85
100.03
100.03
102.47
102.47
83.05
83.05
93.2
93.2
146.6
146.6
175.64
175.64
165.53
165.53
158.5
158.5
141.76
141.76
111.74
111.74
75.97
75.97
61.58
61.58
55.18
55.18
38.1
38.1
41.08
41.08
33.98
33.98
-6.77
-6.77
10.27
10.27
65.97
65.97
-81.42
-81.42
-263.98
-263.98
-196.67
-196.67
-173.52
-209.68
-173.52
-145.53
-177.51
-219.77
-209.68
-145.53
-177.51
-219.77
-183.34
-183.34
-187.98
-187.98
-179.92
-179.92
-153.4
-153.4
-142.53
-142.53
-126.53
-126.53
-123.25
-123.25
-113.46
-113.46
-124.78
-124.78
-166.05
-166.05
-173.7
-173.7
-171.34
-171.34
-168.42
-168.42
-156.95
-156.95
-162.84
-162.84
-108.77
-108.77
-15.66
-15.66
-90.79
-90.79
-190.95
-190.95
-115.84
-115.84
-84.84
-84.84
-96.86
-96.86
-44.34
-44.34
-24.79
-24.79
1.16
1.16
28.61
28.61
5.03
5.03
-1.36
-1.36
8.88
8.88
5.16
5.16
3.01
3.01
-6.6
-6.6
-25.02
-25.02
-38.09
-38.09
-48.13
-48.13
-62.45
-62.45
-81.96
-81.96
-96.05
-96.05
-111.31
-111.31
-134.97
-134.97
-139.59
-139.59
-136.05
-136.05
-146.73
-146.73
-147.61
-147.61
-134.39
-134.39
-126.84
-126.84
-120.09
-120.09
-102.15
-102.15
-82.98
-82.98
-68.12
-68.12
-55.01
-55.01
-54.6
-54.6
-57.42
-57.42
-50.64
-50.64
-42.47
-42.47
-36.92
-36.92
-48.21
-48.21
-14.75
-14.75
87.84
87.84
40.69
40.69
-86.86
-86.86
-50.18
-50.18
-36.67
-36.67
-78.64
-78.64
-39.27
-39.27
-16.87
-16.87
-4.13
-4.13
37.87
37.87
66.06
66.06
79.42
79.42
75.73
75.73
83.56
83.56
117.69
117.69
136.35
136.35
139.58
139.58
149.9
149.9
159.19
159.19
161.7
161.7
161.06
161.06
161.84
161.84
166.49
166.49
174.71
174.71
180.91
180.91
182.88
182.88
180.2
180.2
178.7
178.7
183.87
183.87
184.08
184.08
171.91
171.91
163.12
163.12
159.4
159.4
156.89
156.89
170.83
170.83
183.16
175.63
171.64
160.36
141.2
147.05
164.96
187.93
216.34
183.16
175.63
171.64
160.36
141.2
147.05
164.96
187.93
216.34
124.58
124.58
-105.53
-105.53
-161.47
-161.47
-49.25
-49.25
-62.63
-62.63
-83.96
-83.96
-57.08
-57.08
-91.43
-91.43
-83.07
-83.07
-47.32
-47.32
-51.21
-51.21
-41.75
-41.75
-30.19
-30.19
-43.83
-43.83
-59.18
-59.18
-63.71
-63.71
-69.61
-69.61
15.4
15.4
153.03
153.03
33.23
33.23
-136.34
-136.34
-41.86
-41.86
18.85
18.85
48.16
48.16
134.88
134.88
102.38
102.38
73.18
73.18
82.99
82.99
55.06
55.06
66.37
66.37
88.42
88.42
61.26
61.26
2.82
2.82
-50.02
-50.02
-69.33
-69.33
-70.74
-70.74
-67.82
-67.82
-59.66
-59.66
-66.12
-66.12
-82.42
-82.42
-95.61
-95.61
-122.98
-122.98
-146.77
-146.77
-132.51
-132.51
-108.44
-108.44
-107.5
-107.5
-106.77
-106.77
-98.48
-98.48
-93.04
-93.04
-77.39
-77.39
-54.99
-54.99
-43.47
-43.47
-34.9
-34.9
-26.47
-26.47
-31.68
-31.68
-22.52
-22.52
10.98
10.98
30.34
30.34
46.82
46.82
68.2
68.2
60.64
60.64
39.44
39.44
43.35
43.35
63.42
63.42
76.57
76.57
82.42
82.42
77.36
77.36
55.35
55.35
37.22
37.22
39.66
39.66
48.27
48.27
29.95
29.95
25.95
25.95
124.25
124.25
141.38
141.38
-34.41
-34.41
-78.35
-78.35
9.58
9.58
-5.15
-5.15
-3.6
-3.6
17.92
17.92
-16.98
-16.98
-36.45
-36.45
-62.29
-62.29
-86.6
-86.6
-77.39
-77.39
-82.32
-82.32
-110.09
-110.09
-148.27
-148.27
-174.39
-174.39
-158.66
-158.66
-132.37
-132.37
-122.75
-122.75
-98.23
-98.23
-63.86
-63.86
-56.35
-56.35
-49.45
-49.45
-16.39
-16.39
14.29
14.29
27.39
27.39
27.23
27.23
10.3
10.3
-14.31
-14.31
-27.95
-27.95
-21.32
-21.32
-5.05
-5.05
-1.58
-1.58
-11.43
-11.43
-27.33
-27.33
-55.16
-55.16
-65.44
-65.44
-51.48
-51.48
-47.25
-47.25
-48.57
-48.57
-57.09
-57.09
-74.91
-74.91
-85.6
-85.6
-87.28
-87.28
-68.87
-68.87
-53.27
-53.27
-61.93
-61.93
-69.14
-69.14
-73.41
-73.41
-79.06
-79.06
-73.31
-73.31
-57.87
-57.87
-58.43
-58.43
-78.94
-78.94
-1.27
-1.27
120.18
120.18
4.77
4.77
-123.22
-123.22
-31.96
-31.96
-33.65
-33.65
-72.55
-72.55
-8.41
-8.41
-4.23
-4.23
-4.37
24.74
32.53
49.91
55.18
42.06
16.67
-20.26
-4.37
-37.22
-38.34
24.74
32.53
49.91
55.18
42.06
16.67
-20.26
-37.22
-38.34
-36.92
-36.92
-18.5
9.08
24.14
-18.5
9.08
24.14
40.9
103.06
40.9
103.06
200.49
200.49
270.95
270.95
280.66
280.66
264.01
264.01
259.26
259.26
256.18
256.18
247.01
247.01
224.1
224.1
181.48
181.48
144.31
144.31
118.99
118.99
95.83
95.83
84.05
84.05
74.93
74.93
44.45
44.45
-0.5
-0.5
-33.34
-33.34
-52.04
-52.04
-61.6
-61.6
-52.2
-52.2
-41.44
-41.44
-47.86
-47.86
-39.87
-39.87
9.73
9.73
75.4
75.4
123.53
123.53
153.17
153.17
144.65
144.65
176.21
176.21
298.06
298.06
240.67
240.67
51.96
51.96
52.78
52.78
75.06
75.06
25.12
25.12
31.35
31.35
20.7
20.7
-10.77
-10.77
-28.38
-28.38
-57.64
-57.64
-81.57
-81.57
-91.24
-91.24
-101.17
-101.17
-135.85
-135.85
-181.79
-181.79
-196.99
-196.99
-195.04
-195.04
-196.5
-196.5
-185.06
-185.06
-173.22
-173.22
-179.5
-179.5
-181.29
-181.29
-176.94
-176.94
-185.3
-185.3
-186.4
-186.4
-152.85
-152.85
-108.85
-108.85
-94.35
-94.35
-90.57
-90.57
-70.31
-70.31
-46.38
-46.38
-23.62
-23.62
-8.04
-8.04
-11.49
-11.49
-20.86
-20.86
-27.8
-27.8
-42.84
-42.84
-57.82
-57.82
-58.23
-58.23
-50.84
-50.84
-49.32
-49.32
-50.29
-50.29
-43.71
-43.71
-45.47
-45.47
-55.93
-55.93
-44.9
-44.9
-25.3
-25.3
-22.81
-22.81
-27.35
-27.35
-49.79
-49.79
-19.52
-19.52
114.94
114.94
89.04
89.04
-88.93
-88.93
-68.23
-68.23
13.36
13.36
1.41
1.41
36.69
36.69
49.27
49.27
19.59
19.59
28.96
28.96
33.38
33.38
44.69
44.69
68.27
68.27
47.85
47.85
8.79
8.79
-2.53
-2.53
12.11
12.11
30.96
30.96
32.69
32.69
23.87
23.87
21.7
21.7
20.8
20.8
22.66
22.66
45.97
45.97
72.06
72.06
78.36
78.36
74.5
74.5
55.41
55.41
33.39
33.39
33.27
33.27
43.89
43.89
48.77
48.77
47.28
47.28
47.79
47.79
48.27
48.27
49.45
49.45
64.32
64.32
91.88
91.88
115.61
115.61
119.06
119.06
100.63
100.63
76.98
76.98
63.98
63.98
66.2
66.2
72.06
72.06
76.78
76.78
85.86
85.86
89.71
89.71
60.69
60.69
59.68
59.68
179.89
179.89
222.73
222.73
64.86
64.86
10.94
10.94
80.02
80.02
64.75
64.75
51.23
51.23
62.94
62.94
47.88
47.88
55.07
55.07
73.85
73.85
86.98
86.98
94.05
94.05
69.43
69.43
25.48
25.48
-6.91
-6.91
-21.67
-21.67
-22.9
-22.9
-18.09
-18.09
-10.61
-10.61
-4.01
-4.01
-5.28
-5.28
-5.53
-5.53
15.48
15.48
59.33
59.33
86.32
86.32
77
77
55.55
55.55
37.47
37.47
30.21
30.21
29.82
29.82
25.92
25.92
77.32
77.32
205.71
205.71
252.54
252.54
174.33
174.33
116.49
116.49
65.16
65.16
-16.73
-16.73
-57.57
-57.57
-58.1
-58.1
-54.84
-54.84
-70.35
-70.35
-95.78
-95.78
-104.91
-104.91
-117.06
-117.06
-116.4
-116.4
-101.68
-101.68
-88.43
-88.43
17.63
17.63
98.67
98.67
-45.12
-45.12
-132.18
-132.18
-51.01
-51.01
-65.09
-65.09
-88.61
-88.61
-56.88
-56.88
-75.96
-75.96
-84.14
-84.14
-80.61
-80.61
-81.84
-81.84
-50.26
-50.26
-38.73
-38.73
-65.15
-65.15
-93.03
-93.03
-119.07
-119.07
-120.8
-120.8
-91.17
-91.17
-80.05
-80.05
-92.08
-92.08
-101.07
-101.07
-119.34
-119.34
-117.68
-117.68
-72.48
-72.48
-40.59
-40.59
-39.27
-39.27
-49.21
-49.21
-65.43
-65.43
-67.05
-67.05
-59.09
-59.09
-56.51
-56.51
-50.93
-50.93
-59.92
-59.92
-89.47
-89.47
-112.14
-112.14
-124.57
-124.57
-114.93
-114.93
-81.41
-81.41
-70.21
-70.21
-80.69
-80.69
-79.91
-79.91
-77.35
-77.35
-72.54
-72.54
-44.02
-44.02
5.23
5.23
54.05
54.05
82.17
82.17
95.7
95.7
98.92
98.92
63.76
63.76
98.73
98.73
214.48
214.48
116.9
116.9
-38.15
-38.15
26.99
26.99
24.89
24.89
-45.18
-45.18
-26.91
-26.91
-51.46
-51.46
-62.27
-62.27
-30.33
-30.33
-37.48
-37.48
-38.97
-38.97
-31.41
-31.41
-57.21
-57.21
-97.25
-97.25
-115.47
-115.47
-114.77
-114.77
-121.52
-147.81
-121.52
-187.51
-215.09
-225.52
-241.61
-243.24
-147.81
-187.51
-215.09
-225.52
-241.61
-243.24
-218.44
-209.72
-218.44
-209.72
-220.04
-213.52
-220.04
-213.52
-195.23
-195.23
-175.68
-175.68
-141.88
-141.88
-115.38
-115.38
-113.06
-113.06
-101.96
-101.96
-83.76
-83.76
-69.35
-69.35
-34.66
-34.66
12.14
12.14
43.54
43.54
56.58
56.58
54.59
54.59
41.1
41.1
32.08
32.08
50.47
50.47
84.73
84.73
92.79
92.79
85.64
85.64
93.57
93.57
99.29
99.29
101.09
101.09
114.29
114.29
126.93
126.93
210.24
210.24
322.6
322.6
211.88
211.88
85.12
85.12
172.21
172.21
169.79
169.79
141.3
141.3
211.27
211.27
180.79
180.79
150.77
150.77
180.46
180.46
172.98
172.98
168.3
168.3
156.59
156.59
128.99
128.99
133.85
133.85
142.77
142.77
139.7
139.7
142.09
142.09
132.09
132.09
116.45
116.45
113.53
113.53
120.6
120.6
123.45
123.45
101.93
101.93
79.75
79.75
80.44
80.44
85.31
85.31
87.79
87.79
85.67
85.67
87.28
87.28
97.56
97.56
98.58
98.58
107.02
107.02
131.23
131.23
137.41
137.41
129.63
129.63
134.92
134.92
141.77
141.77
128.16
128.16
101.47
101.47
77.22
77.22
67.88
67.88
77.43
77.43
71.49
71.49
124.12
124.12
228.93
228.93
116.62
116.62
-21.64
-21.64
94.22
94.22
138.08
138.08
98.53
98.53
160.91
160.91
198.77
198.77
244.28
244.28
322.53
322.53
340.6
340.6
316.62
316.62
277.14
277.14
218.48
218.48
171.04
171.04
139.39
139.39
91.25
91.25
44.72
44.72
19.78
19.78
-7.2
-7.2
-36.16
-36.16
-65.55
-65.55
-101.6
-101.6
-126.41
-126.41
-140.16
-140.16
-167.32
-167.32
-195.36
-195.36
-211.99
-211.99
-241.94
-241.94
-272.41
-272.41
-280.63
-280.63
-293.03
-293.03
-312.51
-312.51
-317.66
-316.53
-317.66
-321.72
-332.11
-345.59
-353.6
-316.53
-321.72
-332.11
-345.59
-353.6
-347.99
-347.99
-339.52
-339.52
-331.48
-331.48
-313.16
-313.16
-292.22
-292.22
-291.5
-291.5
-248.61
-248.61
-137.62
-137.62
-172.64
-172.64
-293.15
-293.15
-246.94
-246.94
-207.2
-207.2
-223.58
-223.58
-171.26
-171.26
-145.82
-145.82
-128.27
-128.27
-80.97
-80.97
-77.27
-77.27
-105.58
-105.58
-134.05
-134.05
-142.64
-142.64
-121.73
-121.73
-100.39
-100.39
-81.88
-81.88
-64.18
-64.18
-56.52
-56.52
-41.23
-41.23
-30.69
-30.69
-44.83
-44.83
-24.18
-24.18
61.1
61.1
120.98
120.98
118.15
118.15
108.55
108.55
91.81
91.81
64.09
64.09
40.84
40.84
16.26
16.26
9.38
9.38
20.63
20.63
5.9
5.9
-27.8
-27.8
-33.1
-33.1
-22.28
-22.28
-27.9
-27.9
-39.39
-39.39
-35.15
-35.15
-30.96
-30.96
-56.83
-56.83
-73.43
-73.43
-62.17
-62.17
-78.33
-78.33
-75.63
-75.63
-9.69
-9.69
-52.99
-52.99
-213.94
-213.94
-230.72
-230.72
-167.78
-167.78
-188.43
-188.43
-179.81
-179.81
-140.25
-140.25
-121.1
-121.1
-77.48
-77.48
-33.89
-33.89
-0.35
-0.35
24.06
24.06
23.99
23.99
41.91
41.91
87.96
87.96
123.34
123.34
141.72
141.72
142.41
142.41
129.51
129.51
127.52
127.52
132.98
132.98
130.01
130.01
132.26
132.26
134.38
134.38
119.38
119.38
114.84
114.84
121.06
121.06
107.84
107.84
96.8
96.8
104.91
104.91
107.55
107.55
108.08
108.08
116.52
116.52
121.73
121.73
124.02
124.02
126.19
126.19
126.98
126.98
130.19
130.19
129.75
129.75
119.98
119.98
120.08
120.08
137.59
137.59
147.95
147.95
149.51
149.51
156.7
156.7
160.91
156.93
133.68
162.79
264.24
189.11
38.78
92.77
160.91
121.43
156.93
133.68
162.79
264.24
189.11
38.78
92.77
121.43
82.47
82.47
118.7
120.16
118.7
120.16
117.28
117.28
148.13
148.13
144.05
144.05
128.7
128.7
106.06
106.06
66.04
66.04
49.73
49.73
54.7
54.7
53.29
53.29
52.62
52.62
49.43
49.43
39.52
39.52
41.77
41.77
62.96
62.96
78.7
78.7
73.35
73.35
75.55
75.55
88.17
88.17
83.24
83.24
77.85
77.85
75.02
75.02
63.44
63.44
54.78
54.78
44.77
44.77
37.4
37.4
41.16
41.16
42.31
42.31
34.43
34.43
19.66
19.66
6.17
6.17
-6.33
-6.33
-20.58
-20.58
-28.8
-28.8
-45.61
-45.61
-84.56
-84.56
-128.98
-128.98
-156.97
-156.97
-157.84
-157.84
-133.59
-133.59
-105.22
-105.22
-86.56
-86.56
16.54
16.54
150.19
150.19
58.72
58.72
-50.31
-50.31
53.75
53.75
106.31
106.31
125.07
125.07
189.14
189.14
169.88
169.88
170.38
170.38
207.26
207.26
200.81
200.81
210.61
210.61
225.35
225.35
195.91
195.91
141.16
141.16
87.35
87.35
63.25
63.25
70.57
70.57
74.96
74.96
61.21
61.21
34.19
34.19
-1.59
-1.59
-37.2
-37.2
-54.11
-54.11
-48.67
-48.67
-56.55
-56.55
-87.25
-87.25
-102.05
-102.05
-109.02
-109.02
-133.29
-133.29
-134.27
-134.27
-114.63
-114.63
-123.55
-123.55
-139.23
-139.23
-140.77
-140.77
-146.7
-146.7
-151.41
-151.41
-137.7
-137.7
-124.91
-124.91
-131.78
-131.78
-131.2
-131.2
-126.28
-126.28
-145.13
-145.13
-152.79
-152.79
-132.95
-132.95
-119.41
-119.41
-100.54
-100.54
-68.72
-68.72
-62.21
-62.21
-72.28
-72.28
-78.11
-78.11
-81.53
-81.53
-96.84
-96.84
-84.56
-84.56
9.05
9.05
-27.11
-27.11
-213.08
-213.08
-217.64
-217.64
-144.48
-144.48
-163.61
-163.61
-138.03
-138.03
-126.36
-126.36
-179.81
-179.81
-202.64
-202.64
-195.42
-195.42
-181.47
-181.47
-167.41
-167.41
-170.52
-170.52
-189.94
-189.94
-213.64
-218.02
-192.41
-161.17
-146.17
-148.61
-154.66
-145.75
-213.64
-218.02
-192.41
-161.17
-146.17
-148.61
-154.66
-145.75
-134.92
-134.92
-123.95
-123.95
-93.62
-93.62
-69.8
-69.8
-73.39
-73.39
-87.11
-87.11
-118.52
-118.52
-165.77
-165.77
-183.51
-183.51
-172.3
-172.3
-170.7
-170.7
-164.52
-164.52
-142.35
-142.35
-127.27
-127.27
-131.13
-131.13
-136.6
-136.6
-116.37
-116.37
-79.46
-79.46
-49.44
-49.44
-43.2
-43.2
-53.31
-53.31
-52.95
-52.95
-47.8
-47.8
-29.72
-29.72
0.28
0.28
5.22
5.22
5.31
5.31
31.64
31.64
40.71
40.71
19.33
19.33
0.09
0.09
24.22
24.22
119.63
119.63
134.9
134.9
46.06
46.06
55.36
55.36
83.21
83.21
55.22
55.22
71.23
71.23
76.64
76.64
64.41
64.41
89.61
89.61
120.28
120.28
139.29
139.29
140.86
140.86
120.07
120.07
89.08
89.08
59.63
59.63
61.45
61.45
93.69
93.69
114.02
114.02
131.13
131.13
152.1
152.1
155.07
155.07
162.89
162.89
186.96
186.96
212.96
212.96
233.09
233.09
242.68
242.68
249.2
249.2
244.92
244.92
226.34
226.34
221.2
221.2
236.78
236.78
245.91
245.91
245.23
245.23
253.64
253.64
248.99
248.99
230.27
230.27
235.26
235.26
235.26
235.26
211.1
211.1
193.52
193.52
172.91
172.91
140.33
140.33
111.02
111.02
100.95
100.95
101.99
101.99
91.46
91.46
83.82
83.82
72.52
72.52
37.39
37.39
18.4
18.4
27.76
27.76
39.92
39.92
42.58
42.58
12.16
12.16
-29.95
-29.95
37.02
37.02
150.45
150.45
31.63
31.63
-116.46
-116.46
-31.68
-17.98
-31.68
-74.78
-47.96
-60.11
-52
-15.75
-17.98
-74.78
-47.96
-60.11
-52
-15.75
-18.69
-18.69
-6.55
-1.64
-6.55
-1.64
-21.57
-26.62
-30.8
-21.57
-26.62
-30.8
-46.88
-46.88
-58.13
-67.38
-58.13
-67.38
-80.91
-81.39
-80.91
-81.39
-72.8
-72.8
-73.59
-73.59
-73.31
-73.31
-68.24
-68.24
-81.47
-81.47
-107.65
-107.65
-105.78
-105.78
-81.62
-81.62
-79.86
-79.86
-86.84
-86.84
-77.13
-77.13
-83.81
-83.81
-121.55
-121.55
-150.01
-150.01
-150.09
-150.09
-151.32
-151.32
-163.43
-163.43
-154.21
-154.21
-139.32
-139.32
-141.87
-141.87
-128.54
-128.54
-92.88
-92.88
-71.33
-71.33
-64.14
-64.14
-50.3
-50.3
-40.94
-40.94
-37.98
-37.98
-24.3
-24.3
-17.37
-17.37
-25.55
-25.55
-33.57
-33.57
-47.91
-47.91
-80.45
-80.45
-96.33
-96.33
12.66
12.66
127.07
127.07
-6
-6
-122.8
-122.8
-45.83
-45.83
-60.03
-60.03
-86.67
-86.67
-23.75
-23.75
-6.26
-6.26
14.66
14.66
45.17
45.17
51.58
51.58
70.33
70.33
84.44
84.44
93.47
93.47
93.78
93.78
72.27
72.27
57.87
57.87
59.46
59.46
69.73
69.73
88.51
88.51
113.39
113.39
143.47
143.47
166.64
166.64
174.02
174.02
174.91
174.91
174.66
174.66
179.31
179.31
201.52
201.52
219.17
219.17
198.1
198.1
162.56
162.56
148.59
148.59
141.79
141.79
133.52
133.52
127.83
127.83
115.42
115.42
100.67
100.67
82.38
82.38
52.64
52.64
31.67
31.67
34.08
34.08
38.68
38.68
34.66
34.66
21.95
21.95
-2.29
-2.29
-23.06
-23.06
-26.43
-26.43
-9.47
-9.47
4.17
4.17
-14.44
-14.44
-41.44
-41.44
-55.66
-55.66
-67.07
-67.07
-70.23
-70.23
-59.78
-59.78
-75.25
-75.25
-66.87
-66.87
38.64
38.64
15.39
15.39
-161.94
-161.94
-161.32
-161.32
-88.61
-88.61
-111.21
-111.21
-86.07
-86.07
-75.09
-75.09
-111.03
-111.03
-93.72
-93.72
-64.68
-64.68
-50.15
-50.15
-33.61
-33.61
-32.61
-32.61
-47.36
-47.36
-76.79
-76.79
-94.13
-94.13
-68.58
-37.72
-35.92
-35.63
-28.07
-24.89
-1.25
-68.58
29.19
23.79
-37.72
-35.92
-35.63
-28.07
-24.89
-1.25
29.19
23.79
10.98
10.98
12.9
7.52
12.9
7.52
1.5
1.5
4.58
4.58
12.86
12.86
19.97
19.97
15.18
15.18
-0.27
-0.27
-28.18
-28.18
-56.31
-56.31
-54.61
-54.61
-37.66
-37.66
-39
-39
-51.55
-51.55
-61.83
-61.83
-77.37
-77.37
-104.32
-114.95
-104.32
-100.3
-114.95
-100.3
-104.63
-104.63
-116.05
-116.05
-108.18
-108.18
-114.89
-114.89
-122.66
-122.66
-114.95
-114.95
-89.31
-89.31
16.15
16.15
62.36
62.36
-89.35
-89.35
-153.13
-153.13
-76.37
-76.37
-90.25
-90.25
-87.82
-87.82
-42.38
-42.38
-58.52
-58.52
-71.81
-71.81
-74.06
-74.06
-74.48
-74.48
-53.83
-53.83
-39.3
-39.3
-50.51
-50.51
-85.48
-85.48
-113.74
-113.74
-111.64
-111.64
-92.76
-92.76
-85.43
-85.43
-98.68
-98.68
-97.37
-97.37
-93.03
-93.03
-116.46
-116.46
-105.87
-105.87
-73.67
-73.67
-61.77
-61.77
-18.07
-18.07
10.32
10.32
-7.58
-7.58
-1.39
-1.39
10.19
10.19
22.79
22.79
53.89
53.89
68.12
68.12
69.03
69.03
73.64
73.64
77.11
77.11
78.97
78.97
87.24
87.24
106.8
106.8
120.93
120.93
113.46
113.46
99.31
99.31
97.62
97.62
105.15
105.15
117.97
117.97
122.47
122.47
110.56
110.56
199.06
199.06
308.02
308.02
156.46
156.46
28.68
28.68
147.54
147.54
160.81
160.81
117.98
117.98
158.38
158.38
138.18
138.18
135.52
135.52
183.82
183.82
192.84
192.84
190.32
190.32
193.24
193.24
174.72
174.72
129.45
129.45
80.2
80.2
63.07
63.07
67.49
67.49
59.78
59.78
42.17
42.17
17.37
17.37
-18.47
-18.47
-38.13
-38.13
-25.88
-25.88
-19.11
-19.11
-52.44
-52.44
-92.87
-92.87
-112.97
-112.97
-137.13
-137.13
-148.99
-148.99
-127.53
-127.53
-108.65
-108.65
-110.06
-110.06
-129.37
-129.37
-154.74
-154.74
-165.03
-165.03
-160.77
-160.77
-147.74
-147.74
-139.62
-139.62
-137.06
-137.06
-125.71
-125.71
-120.5
-120.5
-122.06
-110.01
-90.62
-77.55
-72.17
-74.59
-122.06
-110.01
-90.62
-77.55
-72.17
-74.59
-97.68
-97.68
-124.26
-124.26
-124.02
-124.02
-125.46
-125.46
-134.03
-134.03
-119.87
-119.87
-105.14
-105.14
-96.87
-96.87
-103.46
-103.46
-107.85
-107.85
4.16
4.16
95.8
95.8
-22.6
-22.6
-79
-79
-9.79
-9.79
-35.87
-35.87
-37.44
-37.44
14.04
14.04
29.29
29.29
63.49
63.49
86
86
91.78
91.78
112.39
112.39
127.04
127.04
130.34
130.34
113.99
113.99
107.88
107.88
127.82
127.82
132.05
132.05
130.87
130.87
145.62
145.62
155.02
155.02
157.88
157.88
155.34
155.34
141.24
141.24
122.34
122.34
108.45
108.45
109.77
109.77
117.98
117.98
117.72
117.72
114.39
114.39
109.8
109.8
90.23
90.23
57.73
57.73
46.8
46.8
62.04
62.04
77.21
77.21
90.05
90.05
101.58
101.58
98.59
98.59
90.84
90.84
107.17
107.17
129.63
129.63
137.84
137.84
137.56
137.56
123.94
123.94
194.76
194.76
290.36
290.36
160.98
160.98
50.93
50.93
139.19
139.19
125.19
125.19
73.37
73.37
92
92
69.71
69.71
84.04
84.04
152.8
152.8
205.42
205.42
216.42
216.42
188.07
188.07
166.89
166.89
138.51
138.51
98.57
98.57
94.83
94.83
91.09
91.09
62.88
62.88
44.65
44.65
18.99
18.99
-10.7
-10.7
-6.32
-6.32
0.49
0.49
-20.84
-20.84
-34.25
-34.25
-36.89
-36.89
-46.95
-46.95
-25.3
-25.3
36.72
36.72
81.29
81.29
88.96
88.96
85.44
85.44
75.93
75.93
43.29
43.29
9.01
9.01
2.36
2.36
-14.67
-14.67
-54.11
-54.11
-89.78
-89.78
-133.96
-133.96
-169.48
-169.48
-177.47
-177.47
-181.2
-181.2
-197.99
-197.99
-243.09
-243.09
-206.19
-206.19
-97.85
-97.85
-222.5
-222.5
-390.91
-390.91
-308.88
-308.88
-297.97
-297.97
-359.58
-359.58
-314.03
-314.03
-310.91
-310.91
-309.41
-309.41
-269.73
-269.73
-271.39
-271.39
-265.34
-265.34
-249.73
-249.73
-266.53
-266.53
-271.58
-271.58
-257.37
-257.37
-260.02
-260.02
-258.45
-258.45
-237.25
-237.25
-220.3
-220.3
-224.53
-224.53
-230.29
-230.29
-214.55
-214.55
-191.22
-191.22
-176.46
-176.46
-173.87
-173.87
-174.47
-174.47
-147.7
-147.7
-111.34
-111.34
-111.09
-111.09
-128.04
-128.04
-132.59
-132.59
-139.45
-139.45
-146.61
-146.61
-131.04
-131.04
-116.18
-116.18
-117.28
-117.28
-103.28
-103.28
-82.24
-82.24
-66.29
-66.29
-43.34
-43.34
-28.81
-28.81
-34.53
-34.53
41.38
41.38
160.58
160.58
47.92
47.92
-93.88
-93.88
-1.2
-1.2
17.73
17.73
-17.46
-17.46
50.28
50.28
68.21
68.21
73.26
73.26
104.16
104.16
101.17
101.17
80.92
80.92
63.25
63.25
66.62
66.62
83.64
83.64
97.79
97.79
99.1
99.1
56.33
56.33
-18.42
-18.42
-67.74
-67.74
-92.09
-92.09
-127.18
-127.18
-170.52
-170.52
-229.18
-229.18
-320.59
-320.59
-402.83
-402.83
-419.76
-419.76
-377.36
-377.36
-316.77
-316.77
-260.88
-260.88
-194.37
-194.37
-103.25
-103.25
-21.03
-21.03
39.14
39.14
102.14
102.14
168.16
168.16
224.31
224.31
274.27
274.27
378.11
378.11
486.5
486.5
413.53
413.53
338.44
338.44
447.3
447.3
504.08
504.08
533.95
533.95
633.7
633.7
654.41
654.41
646.8
646.8
661.94
661.94
631.87
631.87
585.98
585.98
558.84
558.84
546.63
546.63
522.78
522.78
472.56
472.56
424.73
424.73
378.31
378.31
322.02
322.02
280.58
280.58
259.52
259.52
244.42
244.42
233.72
233.72
220.81
220.81
206.27
206.27
193.11
193.11
173.58
173.58
159.31
159.31
153.47
153.47
143.89
143.89
128.4
128.4
109.87
109.87
95.37
95.37
75.09
75.09
49.13
49.13
38.65
38.65
7.08
7.08
20.36
20.36
120.87
120.87
33.41
33.41
-136.67
-136.67
-74.2
-74.2
-43.37
-43.37
-90.59
-90.59
-50.86
-50.86
-58.11
-58.11
-79.42
-79.42
-59.04
-59.04
-67
-67
-91.02
-91.02
-109.28
-109.28
-114.88
-114.88
-110.04
-110.04
-98.48
-98.48
-72.58
-72.58
-49.37
-49.37
-44.57
-44.57
-48.83
-48.83
-58.98
-66.4
-63.14
-68.4
-84.52
-58.98
-66.4
-63.14
-68.4
-84.52
-99.03
-99.03
-115.96
-115.96
-133.74
-133.74
-154.35
-154.35
-171.23
-171.23
-170.93
-170.93
-163.02
-163.02
-158.67
-158.67
-158.8
-158.8
-157.58
-157.58
-151.52
-151.52
-156.24
-156.24
-173.52
-173.52
-204.63
-204.63
-200.01
-200.01
-110.34
-110.34
-99.81
-99.81
-198.16
-198.16
-192.54
-192.54
-144.14
-144.14
-159.57
-159.57
-154.87
-154.87
-148.15
-148.15
-143.7
-143.7
-81.27
-81.27
-35.45
-35.45
-61.98
-61.98
-95.47
-95.47
-113.27
-113.27
-116.66
-116.66
-107.66
-107.66
-108
-108
-102.53
-102.53
-85.61
-85.61
-78.19
-78.19
-73.86
-73.86
-61.83
-61.83
-47.47
-47.47
-42.11
-42.11
-43.83
-43.83
-38.98
-38.98
-43.7
-43.7
-70.56
-70.56
-91.63
-91.63
-93.47
-93.47
-84.47
-84.47
-68.59
-68.59
-54.23
-54.23
-37.84
-37.84
-16.75
-16.75
2.22
2.22
15.56
15.56
6.91
6.91
-20.09
-20.09
29.17
29.17
118.23
118.23
14.56
14.56
-112.94
-112.94
-40.44
-40.44
-38.03
-38.03
-91.16
-91.16
-52.22
-52.22
-57.23
-57.23
-62.38
-62.38
-23.37
-23.37
-26.84
-26.84
-61.73
-61.73
-80.16
-80.16
-74.46
-74.46
-73.56
-73.56
-79.13
-79.13
-72.8
-72.8
-64.05
-64.05
-49.41
-49.41
-31.77
-31.77
-24.45
-24.45
-18
-18
-12.91
-12.91
-19.91
-19.91
-33.51
-33.51
-36.33
-36.33
-33.83
-33.83
-43.1
-43.1
-45.42
-45.42
-33.92
-33.92
-37.62
-37.62
-51.98
-51.98
-56.27
-56.27
-56.45
-56.45
-55.34
-55.34
-53.48
-53.48
-60.61
-60.61
-76.31
-76.31
-80.93
-80.93
-75.66
-75.66
-84.94
-84.94
-95.23
-5.28
117.23
2.1
-139.1
-54.55
-40.82
-86.31
-95.23
-5.28
117.23
2.1
-139.1
-54.55
-40.82
-86.31
-100.4
-100.4
-176.9
-176.9
-148.85
-148.85
-116.98
-116.98
-250.65
-250.65
-444.38
-444.38
-649.43
-649.43
-686.69
-686.69
-508.82
-508.82
-296.74
-296.74
-208.97
-208.97
-386.49
-386.49
-494.15
-494.15
-328.73
-328.73
-220.22
-220.22
-131.37
-131.37
12.87
12.87
56.89
56.89
41.79
41.79
43.2
43.2
59.06
59.06
54.33
54.33
51.41
51.41
89.5
89.5
127.08
127.08
164.86
164.86
234.32
234.32
314.83
314.83
344.37
344.37
329.87
329.87
332.47
332.47
331.28
331.28
314.92
314.92
291.67
291.67
262.42
249.83
229.05
221.77
266.73
304.44
313.73
350.67
262.42
399.92
249.83
229.05
221.77
266.73
304.44
313.73
350.67
399.92
330.77
330.77
235.69
235.69
294.02
294.02
323.55
323.55
282.33
282.33
300.7
300.7
257.55
257.55
181.05
181.05
194.62
194.62
182.83
182.83
170.38
170.38
259.56
259.56
275.91
275.91
189.27
189.27
160.14
160.14
146.95
146.95
126.19
126.19
146.98
146.98
153.28
153.28
134.37
134.37
122
122
105.27
105.27
76.55
76.55
62.06
62.06
104.81
104.81
154.94
154.94
131.27
131.27
99.47
99.47
219.7
219.7
347.78
347.78
192.48
192.48
25.73
25.73
24.36
24.36
-37.98
-37.98
-34.89
-34.89
-21.33
-21.33
-129.01
-129.01
-40.58
-40.58
207.71
207.71
280.19
280.19
179.36
179.36
141.33
141.33
179.92
179.92
92.67
92.67
194.27
194.27
546.82
546.82
580.37
580.37
419.92
419.92
169.49
169.49
-199.56
-199.56
-270.52
-270.52
-221.98
-221.98
-240.71
-240.71
-202.68
-202.68
-550.75
-550.75
-1118.39
-1118.39
-765.11
-765.11
199.97
199.97
533.96
533.96
456.79
456.79
381.56
381.56
76.75
76.75
-481.85
-481.85
-1117.6
-1117.6
-1194.89
-1194.89
-403.47
-403.47
181.01
181.01
68.84
68.84
135.74
135.74
322.04
322.04
222.12
222.12
244.2
244.2
444.96
444.96
544.9
544.9
509.36
509.36
527.91
527.91
549.79
549.79
330.41
330.41
136.71
136.71
84.84
84.84
-78.11
-78.11
-205.92
-205.92
-237.45
-237.45
-302.23
-302.23
-361.85
-361.85
-363.87
-363.87
-304.87
-304.87
-411.54
-411.54
-561.69
-561.69
-438.4
-438.4
-364.66
-364.66
-369.09
-369.09
-266.95
-266.95
-258.82
-258.82
-257.94
-257.94
-229.16
-229.16
-263.52
-263.52
-224.83
-224.83
-188.22
-188.22
-200.44
-200.44
-137.55
-137.55
-110.51
-110.51
-144.66
-144.66
-133.08
-133.08
-117.38
-117.38
-114.16
-114.16
-125.92
-125.92
-132.63
-132.63
-80.89
-80.89
-48.07
-48.07
-62.09
-62.09
-54.55
-54.55
-43.63
-43.63
-4.88
-4.88
59.89
59.89
-3.35
-3.35
-78.4
-78.4
-17.23
-17.23
-12.7
-12.7
-32.51
-32.51
17.84
17.84
37.97
37.97
44.2
44.2
4.78
4.78
-51.9
-51.9
-12.97
-12.97
11.48
11.48
-17.79
-17.79
-6
-6
11.83
11.83
19.31
19.31
33.39
33.39
23.43
23.43
28.39
28.39
49.25
49.25
27.17
27.17
24.5
24.5
55.86
55.86
46.6
46.6
53.98
53.98
73.94
73.94
43.97
43.97
74.05
74.05
93.75
93.75
-37.47
-37.47
-83.44
-83.44
-5.99
-5.99
-11.5
-11.5
-2.15
-2.15
29.28
29.28
9.84
9.84
-0.73
-0.73
-40.85
-40.85
-43.45
-43.45
21.54
21.54
26.79
26.79
35.91
35.91
65.1
65.1
36.44
36.44
35.05
35.05
71.92
71.92
88.29
88.29
108.55
120.11
131.12
166.59
179.04
175.14
108.55
120.11
131.12
166.59
179.04
175.14
176.71
78.13
176.71
78.13
-117.63
-117.63
-165.12
-165.12
-74.61
-74.61
-82.02
-82.02
-106.23
-106.23
-70.67
-70.67
-74.48
-74.48
-87.18
-87.18
-73.58
-73.58
-77.44
-77.44
-109.94
-109.94
-33.74
-33.74
113.53
113.53
-29.05
-29.05
-224.67
-224.67
-118.2
-118.2
-79.42
-79.42
-121.32
-121.32
-51.85
-51.85
-33.17
-33.17
-27.81
-13.29
-24.79
-27.81
-13.29
-24.79
-0.8
-0.8
0.24
0.24
-16.75
-16.75
-1.65
-1.65
1.16
1.16
5.17
5.17
24.6
24.6
16.15
16.15
-16.16
-16.16
-34.84
-34.84
-42.65
-42.65
-71.78
-71.78
-79.57
-79.57
-46.91
-46.91
-42.59
-42.59
-54.82
-54.82
-58.54
-58.54
-74.65
-74.65
-54.91
-54.91
29.99
29.99
113.77
113.77
162.64
162.64
190.74
190.74
190.94
190.94
191.77
191.77
282.71
282.71
362.25
362.25
207.57
207.57
68.42
68.42
145.37
145.37
131.51
131.51
54.59
54.59
55.08
55.08
36.78
36.78
37.81
37.81
29.04
29.04
-5.08
-5.08
-15.06
-15.06
-72.84
-72.84
-136.48
-136.48
-133.58
-133.58
-128.4
-128.4
-131.99
-131.99
-122.18
-122.18
-114.73
-114.73
-101.85
-101.85
-87.89
-87.89
-84.15
-84.15
-82.42
-82.42
-78.93
-78.93
-64.7
-64.7
-44.69
-44.69
-34.79
-34.79
-19.55
-19.55
6.41
6.41
20.12
20.12
21.57
21.57
24.22
24.22
17.31
17.31
-0.23
-0.23
-3.19
-3.19
8.41
8.41
18.04
18.04
32.22
32.22
56.61
56.61
73.01
73.01
76.55
76.55
93.47
93.47
103.52
103.52
85.31
85.31
123.15
123.15
137.44
137.44
-30.13
-30.13
-128.76
-128.76
-42.7
-42.7
-39.23
-39.23
-62.56
-62.56
-20.91
-20.91
-16.53
-16.53
-0.47
-0.47
19.29
19.29
11.9
11.9
29.65
29.65
24.3
24.3
0.29
0.29
12.47
12.47
17.67
17.67
18.76
18.76
50.31
50.31
71.49
71.49
65.73
65.73
63.53
63.53
59.58
59.58
48.92
48.92
49.68
49.68
40.65
40.65
1.01
1.01
-31.38
-31.38
-36.39
-36.39
-36.29
-36.29
-46.66
-59.8
-46.66
-59.8
-47.16
-47.16
-15.73
-15.73
6.11
30.54
6.11
59.49
82.36
99.24
105.74
116.8
30.54
59.49
82.36
99.24
105.74
116.8
115.08
150.32
115.08
150.32
284.3
284.3
263.57
263.57
67.82
67.82
45.97
45.97
98.51
98.51
66.24
66.24
63.79
63.79
56.09
56.09
30.01
30.01
33.39
33.39
44.2
44.2
58.52
58.52
50.54
50.54
9.92
9.92
1.56
1.56
30.62
30.62
38.35
38.35
38.91
38.91
59.19
59.19
86.3
86.3
115.34
115.34
122.76
122.76
114.97
114.97
116
116
94.94
94.94
66.71
66.71
60.23
60.23
44.33
44.33
16.95
16.95
-8.67
-8.67
-38.55
-38.55
-60.84
-60.84
-70.93
-70.93
-73.52
-73.52
-66.28
-66.28
-80.38
-80.38
-111.16
-111.16
-111.54
-111.54
-104.34
-104.34
-115.21
-115.21
-120.56
-120.56
-122.73
-122.73
-156.78
-156.78
-169.09
-169.09
-44.81
-44.81
4.65
4.65
-206.83
-206.83
-295.18
-295.18
-183.68
-183.68
-190.17
-190.17
-196.17
-196.17
-142.43
-142.43
-149.11
-149.11
-133.33
-133.33
-104.01
-104.01
-111.93
-111.93
-113.38
-113.38
-129.98
-129.98
-163.44
-163.44
-162.91
-162.91
-144.54
-144.54
-141.68
-141.68
-134.28
-134.28
-111.93
-111.93
-102.44
-102.44
-100.56
-100.56
-87.41
-87.41
-82.95
-82.95
-82.27
-82.27
-70.3
-70.3
-66.01
-66.01
-62.77
-62.77
-53.29
-53.29
-52.71
-52.71
-55.36
-55.36
-54.68
-54.68
-54.97
-54.97
-61.22
-61.22
-65.82
-65.82
-50.78
-50.78
-30.5
-30.5
-16.09
-16.09
2.82
2.82
6.61
6.61
-2.67
-2.67
5.48
5.48
15.72
15.72
-4.25
-4.25
57.67
57.67
195.38
195.38
65.62
65.62
-128.24
-128.24
-6.6
-6.6
47.99
47.99
-21.97
-21.97
16.4
16.4
12.53
12.53
7.23
7.23
64.52
64.52
110.45
110.45
146.93
146.93
149.88
151.69
149.88
184.11
195.31
185.17
151.69
184.11
195.31
185.17
176.36
176.36
164.1
151.23
164.1
151.23
144.5
144.5
139.05
139.05
130.12
130.12
126.78
126.78
132.93
132.93
144.62
144.62
145.75
145.75
132.52
132.52
127.7
127.7
129.9
129.9
122.97
122.97
111.85
111.85
103.37
103.37
89.48
89.48
73.29
73.29
72.62
72.62
75.17
75.17
54.62
54.62
35.17
35.17
31.57
31.57
-7.24
-7.24
-37.55
-37.55
44.23
44.23
67.94
67.94
-91.1
-91.1
-148.32
-148.32
-76.87
-76.87
-99.97
-99.97
-116.07
-116.07
-86.29
-86.29
-100.27
-100.27
-100.42
-100.42
-81.01
-81.01
-76.92
-76.92
-80.1
-80.1
-108.67
-108.67
-145.89
-145.89
-144.56
-144.56
-129.91
-129.91
-136.21
-136.21
-139.06
-139.06
-130.51
-130.51
-131.05
-131.05
-126.49
-126.49
-104.69
-104.69
-93.48
-93.48
-97.93
-97.93
-99.48
-99.48
-95.94
-95.94
-80.66
-80.66
-57.86
-57.86
-45.46
-45.46
-39.01
-39.01
-32.92
-32.92
-28.66
-28.66
-29.72
-29.72
-39.74
-39.74
-48.54
-48.54
-41.65
-41.65
-21.62
-21.62
-0.45
-0.45
18.08
18.08
32.24
32.24
38.37
38.37
25.85
25.85
30.3
30.3
142.15
142.15
213.55
213.55
71.97
71.97
-4.98
-4.98
75.27
75.27
63.96
63.96
32.57
32.57
59
59
71.65
71.65
88.52
88.52
80.76
80.76
62.59
62.59
75.98
75.98
76.82
76.82
52.6
52.6
33.8
33.8
32.84
32.84
38.37
38.37
39.27
39.27
36.63
36.63
41.02
41.02
59.3
59.3
69.7
69.7
63.6
63.6
60.34
60.34
59.84
59.84
55.32
55.32
50.1
50.1
45.94
45.94
48.59
48.59
51.65
51.65
38.88
38.88
21.32
21.32
19.08
19.08
17.62
17.62
11.92
11.92
22.33
22.33
28.27
28.27
15.84
15.84
7.63
7.63
4.82
4.82
18.56
27.78
18.56
12.06
19.38
18.05
-8.52
27.78
12.06
19.38
18.05
-8.52
-7.59
-7.59
1.34
1.34
112.1
235.19
112.1
235.19
70.56
70.56
-62.5
-62.5
57.48
57.48
59.17
59.17
14.04
14.04
58.5
58.5
43.08
43.08
41.93
41.93
75.03
75.03
74.45
74.45
81.83
81.83
83.53
83.53
64.64
64.64
61.07
61.07
66.77
66.77
72.58
72.58
75.98
75.98
62.02
62.02
34.28
34.28
4.55
4.55
-5.38
-5.38
-1.11
-1.11
-14.68
-14.68
-24.22
-24.22
-17.33
-17.33
-26.3
-26.3
-43.34
-43.34
-49.52
-49.52
-41.06
-41.06
-29.24
-29.24
-37.37
-37.37
-42.32
-42.32
-35.4
-35.4
-44.09
-44.09
-46.84
-46.84
-35.01
-35.01
-50.62
-50.62
-84.17
-84.17
-93.02
-93.02
-80.15
-80.15
-63.97
-63.97
-50.31
-50.31
-37.88
-37.88
-39.4
-39.4
-60.87
-60.87
-71.15
-71.15
-61.19
-61.19
-58.38
-58.38
-47.09
-47.09
92.78
92.78
221.94
221.94
41.52
41.52
-91.52
-91.52
39.27
39.27
27.05
27.05
-28.44
-28.44
21.13
21.13
2.25
2.25
2.72
2.72
30.93
30.93
13.6
13.6
16.08
16.08
22.25
22.25
-4.21
-4.21
-29.91
-29.91
-26.86
-26.86
-24.36
-24.36
-60.38
-60.38
-99.68
-99.68
-103.68
-103.68
-88.29
-88.29
-67.13
-67.13
-58.59
-58.59
-70.41
-70.41
-85.23
-85.23
-94.7
-94.7
-100.19
-100.19
-105.51
-105.51
-104.16
-104.16
-93.52
-93.52
-92.78
-92.78
-106.49
-106.49
-112.88
-112.88
-100.58
-100.58
-83.19
-83.19
-70.83
-70.83
-65.41
-65.41
-69.05
-69.05
-73.83
-73.83
-66.47
-66.47
-45.46
-45.46
-22.82
-22.82
-6.59
-6.59
-0.66
-0.66
-5.35
-5.35
-13.94
-13.94
-14.36
-14.36
5.23
5.23
13.96
13.96
-15.5
-15.5
-50.88
-50.88
-50.57
-50.57
59.77
59.77
134.99
134.99
-40.04
-40.04
-139.25
-139.25
-21.99
-21.99
-13.94
-13.94
-38.28
-38.28
-3.88
-3.88
-29.13
-29.13
-39.64
-39.64
-24.93
-24.93
-13.47
-13.47
18.78
18.78
18.15
18.15
-2.47
28.8
141.95
-2.47
28.8
141.95
284.64
284.64
346.45
346.45
333.87
333.87
319.57
319.57
295.59
295.59
263.38
263.38
240.36
240.36
206.87
206.87
175.64
175.64
166.64
166.64
173.7
173.7
197.52
197.52
200.52
200.52
154.84
154.84
105.16
105.16
93.87
93.87
84.72
84.72
45.2
45.2
17.39
17.39
4.1
4.1
-25.45
-25.45
-50.91
-50.91
-66.87
-66.87
-79.98
-79.98
-82.3
-82.3
-88.02
-88.02
-105.08
-105.08
-124.99
-124.99
-149.96
-149.96
-184.36
-184.36
-230.24
-230.24
-249.61
-249.61
-158.46
-158.46
-77.18
-77.18
-193.14
-193.14
-283.54
-283.54
-213.8
-213.8
-196.49
-196.49
-194.39
-194.39
-139.2
-131.23
-139.2
-131.23
-139.31
-139.31
-130.66
-130.66
-140.59
-140.59
-168.24
-168.24
-194.52
-194.52
-209.43
-209.43
-214.92
-214.92
-213.18
-213.18
-205.59
-205.59
-194.5
-194.5
-188.51
-188.51
-182.01
-182.01
-174.02
-174.02
-181.82
-181.82
-197.11
-197.11
-211.98
-211.98
-227.2
-227.2
-217.73
-217.73
-199.81
-199.81
-201.6
-201.6
-195.23
-195.23
-182.35
-182.35
-180.11
-180.11
-165.79
-165.79
-155.39
-155.39
-149.59
-149.59
-118.55
-118.55
-79.03
-79.03
-32.45
-32.45
20.27
20.27
46.22
46.22
28.16
28.16
82.93
82.93
220.85
220.85
101.54
101.54
-98.09
-98.09
-0.88
-0.88
29.48
29.48
-33.99
-33.99
32.76
32.76
32.48
32.48
11.43
11.43
52.52
52.52
46.8
46.8
17.16
17.16
3.32
3.32
4.74
4.74
21.63
21.63
29.44
29.44
37.59
37.59
55.3
55.3
64.39
64.39
79.27
79.27
104.33
104.33
123.09
123.09
147.92
147.92
168.19
168.19
159.22
159.22
140.32
140.32
124.2
124.2
114.03
111.25
114.03
103.95
109.22
138.58
169.03
183.31
111.25
103.95
109.22
138.58
169.03
183.31
159.47
127.45
159.47
127.45
132.48
132.48
134.58
134.58
106.55
106.55
116.97
116.97
215.64
215.64
234.8
234.8
109.45
109.45
90.14
90.14
147.91
147.91
122.73
122.73
116.2
116.2
126.23
126.23
108.23
108.23
129.77
129.77
158.55
158.55
140.45
140.45
118.34
118.34
125.84
125.84
140.61
140.61
134.52
134.52
109.45
109.45
80.05
80.05
59.14
59.14
60.09
60.09
77.23
77.23
84.52
84.52
81.36
81.36
89.69
89.69
93.33
93.33
76.08
76.08
64.11
64.11
65.33
65.33
71.47
71.47
84.72
84.72
100.41
100.41
116.48
116.48
129.44
129.44
131.56
131.56
130.31
130.31
131.02
131.02
118.61
118.61
105.11
105.11
111.81
111.81
104.81
104.81
163.39
163.39
287.75
287.75
152.57
152.57
-40.14
-40.14
64.31
64.31
86.75
86.75
11.96
11.96
69.32
69.32
65.31
65.31
39.59
39.59
69.82
69.82
54.44
54.44
29.06
29.06
24.65
24.65
17.55
17.55
20.08
20.08
26.8
26.8
27.13
27.13
30.42
30.42
35.14
35.14
29.5
29.5
12.2
12.2
-2.29
-2.29
-8.25
-8.25
-15.09
-15.09
-21.55
-21.55
-28.62
-28.62
-39.03
-39.03
-32.73
-32.73
-10.27
-10.27
-2.98
-2.98
-12.58
-12.58
-24.24
-24.24
-28.91
-28.91
-25.48
-25.48
-27.84
-27.84
-29.9
-29.9
-34.14
-34.14
-63.54
-63.54
-91.84
-91.84
-95.79
-95.79
-98.62
-98.62
-119.57
-119.57
-150.56
-150.56
-83.37
-83.37
21.61
21.61
-120.91
-120.91
-265.91
-265.91
-162.5
-162.5
-153.45
-153.45
-194.47
-136.6
-147.98
-140.55
-76.93
-194.47
-136.6
-147.98
-140.55
-76.93
-65.71
-60.41
-65.71
-60.41
-51.17
-82.58
-51.17
-82.58
-117.09
-110.12
-117.09
-110.12
-79.72
-79.72
-64.59
-64.59
-63.7
-63.7
-61.8
-61.8
-63.64
-63.64
-64.4
-64.4
-38.61
-38.61
2.21
2.21
18.77
18.77
22.75
22.75
40.64
40.64
48.92
48.92
46.76
46.76
63.11
63.11
75.11
75.11
72.59
72.59
79.82
79.82
80.87
80.87
74.59
74.59
82.13
82.13
94.73
94.73
91.79
91.79
61.09
61.09
25.19
25.19
11.94
11.94
10.19
10.19
17.71
17.71
39.84
39.84
48.77
48.77
30.99
30.99
-4.46
-4.46
-39.74
-39.74
43.42
43.42
158.73
158.73
18.52
18.52
-117.06
-117.06
-39.01
-39.01
-71.41
-71.41
-135.39
-135.39
-107.09
-107.09
-145.5
-145.5
-173.34
-173.34
-172.05
-172.05
-208.68
-208.68
-227.73
-227.73
-232.04
-232.04
-250.36
-250.36
-266.93
-266.93
-273.77
-273.77
-268.81
-268.81
-258.02
-258.02
-252.78
-252.78
-247.23
-247.23
-229.63
-229.63
-208.45
-208.45
-194.3
-194.3
-178.3
-178.3
-159.99
-159.99
-147.93
-147.93
-133.25
-133.25
-119.51
-119.51
-123.71
-123.71
-113
-113
-78.42
-78.42
-73.2
-73.2
-80.52
-80.52
-57.66
-57.66
-24.2
-24.2
2.15
2.15
17.5
17.5
23.3
23.3
23.98
23.98
13.38
13.38
9.46
9.46
33.12
33.12
53.56
53.56
52.33
52.33
63.84
63.84
75.84
75.84
66.82
66.82
60.42
60.42
49.86
49.86
143.97
143.97
296.96
296.96
142.62
142.62
-46.39
-46.39
74.2
74.2
86.72
86.72
18.69
18.69
80.94
80.94
81.21
81.21
106.17
106.17
195.09
195.09
208.22
208.22
198.46
198.46
194.02
194.02
161.78
161.78
145.81
145.81
148.04
148.04
133.89
133.89
120.42
120.42
107.88
107.88
98.26
98.26
118.51
118.51
146.06
146.06
144.99
144.99
130.6
130.6
149.65
149.65
217
217
285.18
285.18
306.41
306.41
298.78
298.78
288.12
288.12
265.97
265.97
240.83
240.83
217.26
217.26
178.25
178.25
133.86
133.86
95.48
95.48
41.76
41.76
-33.97
-33.97
-91.24
-91.24
-114.63
-114.63
-141.51
-141.51
-188.04
-188.04
-177.31
-177.31
-86.94
-86.94
-135.71
-135.71
-305.48
-305.48
-321.6
-321.6
-311.96
-311.96
-374.32
-374.32
-359.5
-359.5
-343.25
-343.25
-360.58
-360.58
-332.11
-332.11
-305.46
-305.46
-314.14
-314.14
-327.7
-327.7
-322.54
-322.54
-292.53
-292.53
-254.16
-254.16
-229.85
-229.85
-226.6
-226.6
-213.53
-213.53
-180.56
-180.56
-156.86
-156.86
-132.25
-132.25
-106.78
-106.78
-99.72
-99.72
-90.23
-90.23
-80.87
-80.87
-87.63
-87.63
-95.96
-95.96
-102.82
-102.82
-103.23
-103.23
-92.58
-92.58
-86.56
-86.56
-91.36
-91.36
-84
-84
-55.24
-55.24
-39.73
-39.73
-37.99
-37.99
-32.51
-32.51
42.89
42.89
195.83
195.83
151.52
151.52
2.19
2.19
65.44
65.44
70.95
70.95
-37.19
-37.19
-25.01
-25.01
-0.55
-0.55
10.2
10.2
54.24
54.24
74.17
74.17
66.17
66.17
63.54
63.54
84.66
84.66
103.08
103.08
116.09
116.09
141.52
141.52
159.9
159.9
178.82
178.82
198.27
198.27
196.73
196.73
195.34
195.34
200.13
200.13
198.17
198.17
202.64
202.64
213.64
213.64
230.56
230.56
254
254
258.11
258.11
258.45
258.45
278.64
278.64
277.03
277.03
258.52
258.52
267.69
267.69
281.53
281.53
277.17
277.17
273.23
273.23
258.19
258.19
195.52
195.52
209.41
209.41
326.16
326.16
186.98
186.98
-34.91
-34.91
52.89
52.89
81.27
81.27
4.05
4.05
54.03
54.03
56.8
56.8
51.97
51.97
91.7
91.7
85.38
85.38
73.61
73.61
54.77
54.77
54.52
54.52
94.22
99.62
94.85
110.36
94.22
99.62
94.85
110.36
110.52
110.52
114.84
114.84
130.52
130.52
142.56
142.56
142.55
142.55
117.94
117.94
106.72
106.72
124.4
124.4
121.41
121.41
99.91
99.91
89.99
89.99
85.21
85.21
86.72
86.72
91.14
91.14
76.92
76.92
61.68
61.68
56.43
56.43
37.24
37.24
16.4
16.4
15.43
15.43
31.48
31.48
40.95
40.95
6.22
6.22
36.64
36.64
157.72
157.72
47.65
47.65
-144.11
-144.11
-68.16
-68.16
-50.1
-50.1
-119.36
-119.36
-57.23
-57.23
-36.98
-36.98
-45.35
-45.35
-39.28
-39.28
-92.3
-92.3
-129.51
-129.51
-144.19
-144.19
-175.5
-175.5
-184.86
-184.86
-180.66
-180.66
-174.7
-174.7
-148.73
-148.73
-128.66
-128.66
-125.14
-125.14
-114.86
-114.86
-101.45
-101.45
-107.47
-107.47
-128.07
-128.07
-124.45
-124.45
-101.81
-101.81
-101.05
-101.05
-108.98
-108.98
-105.95
-105.95
-101.9
-101.9
-99.37
-99.37
-97.06
-97.06
-95.5
-95.5
-99.16
-99.16
-106.18
-106.18
-104.51
-104.51
-105.3
-105.3
-119.25
-119.25
-124.62
-124.62
-113.31
-113.31
-131.14
-131.14
-127.56
-127.56
-6.97
-6.97
7.61
7.61
-168.34
-168.34
-185.63
-185.63
-105.45
-105.45
-147.98
-147.98
-150.62
-150.62
-117.86
-117.86
-124.89
-124.89
-102.97
-102.97
-88.64
-88.64
-100.28
-100.28
-105.89
-105.89
-128.83
-128.83
-157.5
-157.5
-160.02
-160.02
-146.41
-146.41
-140.7
-140.7
-149.02
-149.02
-148.08
-148.08
-131.07
-131.07
-114.55
-114.55
-94.77
-94.77
-84.55
-84.55
-85.72
-85.72
-74.07
-74.07
-60.09
-60.09
-49.09
-49.09
-26.51
-26.51
6.66
6.66
29.2
29.2
24.53
24.53
10.2
10.2
3.62
3.62
5.68
5.68
16.44
16.44
17.98
17.98
12.98
12.98
8.33
-19
8.33
-42.55
-35.38
-25.56
-23.92
-27.8
-37.34
-19
-42.55
-35.38
-25.56
-23.92
-27.8
-37.34
-48.66
-53.75
-48.66
-53.75
-39.46
-26.91
-39.46
-26.91
-40.58
-82.97
-40.58
-82.97
-130.51
-130.51
-56.56
-56.56
33.52
33.52
-133.87
-133.87
-251.01
-251.01
-144.54
-144.54
-174.23
-174.23
-221.25
-221.25
-159
-159
-165.08
-165.08
-153.68
-153.68
-102.9
-102.9
-90.02
-90.02
-71.33
-71.33
-36.94
-36.94
-17.68
-17.68
-28.77
-28.77
-59.63
-59.63
-79.13
-79.13
-66.95
-66.95
-32.97
-32.97
-11.6
-11.6
-9.13
-9.13
-5.7
-5.7
-2.34
-2.34
22.96
22.96
62.53
62.53
79.55
79.55
99.21
99.21
116.68
116.68
121
121
146.91
146.91
178.73
178.73
191.1
191.1
189.11
189.11
172.8
172.8
172.42
172.42
205.45
205.45
234.98
234.98
250.8
250.8
263.91
263.91
265.37
265.37
257.12
257.12
259.12
259.12
279.92
279.92
292.16
292.16
275.23
275.23
247.69
247.69
227.27
227.27
215.84
215.84
213.24
213.24
222.31
222.31
214.57
214.57
213.84
213.84
329.98
329.98
372.48
372.48
174.95
174.95
118.02
118.02
232.11
232.11
211.64
211.64
211.43
211.43
276.34
277.09
273.41
276.34
269.88
277.09
273.41
269.88
274.49
294.85
274.49
294.85
276.38
276.38
239.09
196.36
239.09
196.36
143.56
143.56
123.41
123.41
124.07
124.07
115.14
115.14
107.06
107.06
93.81
93.81
72.5
72.5
56.05
56.05
50.12
50.12
42.78
42.78
4.04
4.04
-60.46
-60.46
-110.96
-110.96
-143.68
-143.68
-170.7
-170.7
-190.1
-190.1
-206.51
-206.51
-209.99