43.3
71.63
49.85
18.55
21.36
129.56
149.68
138.8
134.14
130.16
180.59
207.49
187.43
166.71
212.46
184.55
251.79
253.65
302.2
303.82
283.38
343.25
357.5
319.4
378.78
396.64
358.81
393.13
334.25
363.67
359.38
393.78
461.21
383.96
389.03
473.08
465.24
424.57
453.45
482.19
439.01
446.66
490.52
533.59
503.97
515.77
456.08
488.43
478.8
532.05
512
460.24
466.88
495.16
518.2
542.52
481.8
468.17
520.07
488.99
450.05
430.52
447.54
426.67
466.45
424.06
466.41
456.82
406.38
434.16
390.06
371.04
445.41
433.78
347.8
333.5
341.81
330.59
385.4
310.72
314.68
341.16
319.41
1800.7
256.83
309.67
265.03
227.05
191.39
181.52
161.16
203.22
181.53
180.41
159.54
124.8
91.73
140.57
36.61
60.96
70.84
63.52
-19.87
29.92
-40.49
-4.22
-50.54
-20.84
-116.75
-91.58
-96.07
-92.91
-110.63
-104.97
-126.52
-141.3
-159.73
-149.79
-188.01
-226.2
-229.64
-295.86
-275.7
-275.2
-292.55
-285.37
-302.61
-280.94
-368.27
-317.24
-348.12
-381.22
-405.25
-386.46
-358.3
-407.18
-419.51
-429.41
-392.94
-407.96
-476.94
-419.5
-467.45
-504.63
-431.29
-453.95
-458.21
-510.23
-465.56
-538.25
-484.64
-522.92
-496.8
-495.48
-539.73
-514.9
-480.5
-528.49
-517.8
-464.22
-515.84
-495.57
-488.99
-446.1
-446.89
-500.51
-505.25
-445.29
-490.08
-440.55
-490.27
-427.23
-480.07
-463.5
-406.85
-440.12
-392.28
-349.76
-438.08
-362.5
-415.32
-356.11
-324.28
-365.7
-337.05
-296.37
-316.23
-306.59
-310.37
-301.29
-294.84
-222.45
-241.72
-226.35
-153.82
-202.18
-187.54
-166.87
-175.85
-87.05
-82.94
-87.15
-61.18
-72.26
-16.63
7.69
15.24
32.8
42.23
-15.71
17.9
25.28
105.46
123.03
132.29
134.53
104.71
159.01
134.26
124.03
143.14
173.69
257.48
240.48
259.59
206.77
230.06
278.53
285.88
318.76
291.92
371.16
375.05
341.79
385.43
383.79
346.09
387.21
386.97
367.99
451.62
464.41
449.53
415.03
427.6
500.68
421.02
493.51
505.79
462.41
2028.41
464.81
464.25
485.46
511.8
522.74
539.17
507.25
538.8
465.73
479.41
507.59
495.71
493.45
510.79
455.09
486.83
532.53
488.82
466.09
523.53
484.37
488.82
507.22
424.7
457.15
463.7
480.49
468.48
457.13
440.7
384.55
398.13
427.91
335.44
375.12
383.07
368.06
311.66
356.07
269.56
244.38
315.62
219.08
226.7
276.65
274.26
170.46
168.32
186.57
222.91
159.83
123.51
157.6
164.39
106.29
126.94
60.85
71.73
3.02
17.7
-23.69
6.72
-25.94
-20.85
1.95
-49.09
-107.13
-108.29
-108.44
-133.32
-143.19
-148.95
-210.49
-215.24
-211.86
-236.56
-223.09
-188.26
-270.88
-236.03
-271.39
-316.92
-257.35
-278.43
-274.06
-309.52
-391.58
-305.25
-395.44
-331.28
-370.98
-436.19
-430.99
-431.13
-392.29
-470.42
-466.17
-471.9
-464.36
-428.56
-413.79
-458.05
-473.46
-471.57
-484.51
-480.42
-491.94
-539.76
-500.55
-536.11
-540.99
-462.09
-502.14
-459.83
-520.9
-454.58
-543.63
-449.12
-511.16
-458.82
-478.69
-480.02
-460.38
-500.46
-492.53
-465.43
-446.29
-505.14
-415.31
-483.18
-405.14
-401.51
-400.47
-392.05
-377.88
-404.15
-347.26
-369.97
-342.18
-370.51
-353.84
-353.65
-343.55
-308.32
-259.38
-241.54
-315.22
-267.18
-248.24
-258.62
-222.37
-183.14
-209.41
-206.07
-198.59
-160.97
-163.57
-70.4
-95.54
-133.13
-123.54
-105.59
-51.45
-51.16
-30.22
-21.61
22.61
23.01
4.86
76.76
59.26
60.42
120.01
84.4
133.71
134.14
160.84
201.27
197.38
216.45
263.16
202.14
258.68
291.61
285.86
331.89
264.04
350.42
303.04
347.99
340.44
393.59
358.47
340.67
338.43
405.08
374.96
382.95
459.4
413.36
387.41
485.1
479.08
446.92
456.02
432.22
422.72
488.62
521.18
477.95
487.06
504.36
472.91
486.73
522.19
461.82
499.12
531.65
520.06
461.12
465.79
537.91
482.13
486.29
505.82
453.42
463.07
454.97
443.89
421.92
428.23
462.77
423.79
452.21
431.56
417.35
434.53
386.43
446.58
367.24
390.17
338.85
397.06
332.14
359.24
355.1
320.17
325.75
297.55
290.38
309.13
237.13
268.45
264.08
189.91
214
181.94
157.43
159.75
196
141.78
120.2
97.51
83.97
72.47
22.01
61.29
77.89
9.3
23.99
-41.22
-59.4
-88.42
-28.49
-65.33
-77.28
-93.5
-72.15
-139.83
-172.56
-161.92
-171.43
-173.44
-185.91
-201.17
-203.58
-274.13
-237.09
-250.77
-317.38
-319.22
-352.46
-288.65
-341.3
-351.18
-322.25
-380.96
-334.7
-357.25
-439.85
-365.8
-389.98
-407.92
-472.68
-402.97
-430.15
-436.44
-484.12
-467.34
-447.02
-462.69
-495.26
-478.36
-485.7
-503.15
-509.4
-477.63
-463.68
-477.37
-481.16
-451.25
-526.68
-485.89
-531.22
-490.04
-478.48
-445.49
-517.13
-458.64
-511.01
-458.04
-466.8
1065.1
-485.67
-484.51
-450.08
-463.06
-445.06
-418.13
-439.94
-470.62
-445.06
-430.6
-429.71
-390.65
-425.61
-396.3
-335.73
-393.89
-338.68
-296.94
-286.68
-318.35
-334.44
-228.6
-233.16
-204.12
-257.34
-228.48
-220.93
-172.83
-153.28
-147.84
-195.48
-115.48
-143.25
-86.12
-108.18
-32.09
-103.65
-73.42
-70.58
-67.69
9.15
10.19
-3.19
74
85.87
54.34
86.55
83.34
115.16
160.86
118.56
189.08
208.32
154.62
215.72
218.56
259.59
269.2
265.21
248.59
295.11
262.26
309.15
364.35
299.7
300.39
315.58
372.05
322.69
340.86
364.73
357.07
454.04
372.06
418.38
449.78
390.66
458.67
484.51
439.62
464.49
433.04
496.65
523.65
440.66
525.27
524.14
532.04
484.58
518
474.6
518.42
477.58
537.56
460.45
450.22
502.36
521.96
454.28
442.87
501.44
469.59
447.55
493.92
496.31
429.5
495.26
461.24
441.93
478.89
390.41
422.12
399.5
408.11
439.6
389.24
342.94
369.5
353.76
326.5
350.5
352.12
278.28
315.73
275.71
250.24
218.18
228.65
212.99
185.16
213.75
200.79
216.75
124.77
193.24
119.24
120.5
64.89
49.92
105.09
58.57
6.73
42.16
61.9
48.18
14.05
17.91
-79.51
-93.02
-46.66
-114.82
-120.34
-135.06
-104.21
-185.14
-164.33
-188.68
-170.69
-245.87
-255.53
-267.87
-279.32
-287.75
-218.49
-241.7
-304.91
1188.93
-267.1
-305.88
-381.13
-351.64
-320.81
-413.81
-413.95
-405.47
-370.08
-357.85
-409.12
-449.66
-462.69
-447.94
-411.33
-421.56
-442.99
-457.44
-422.1
-445.02
-500.77
-477.42
-466.02
-464.41
-532.29
-523.56
-498.61
-514.02
-480.43
-461
-494.06
-475.09
-521.68
-456.81
-528.29
-479.05
-477.82
-472.21
-456.76
-491.69
-434.3
-497.2
-437.49
-416.26
-440.05
-447.62
-438.32
-445.64
-437.66
-369.31
-383.68
-398.42
-398.34
-364.01
-383.91
-326.17
-305.95
-385
-298.22
-280.32
-324.45
-328.11
-264.43
-228.13
-291.38
-205.08
-217.78
-203.44
-216.58
-140.19
-140.87
-179.49
-153.34
-103.24
-121.06
-118.89
-49.02
-22.71
-40.32
-68.02
-6.63
21.03
6.65
6.21
85.02
24.76
19.87
84.48
142.19
66.31
150.4
181.03
120.4
210.99
169.75
149.78
206.86
198.72
284.09
261.97
290.8
279.5
324.55
311.56
341.32
301.77
325.14
323.42
364.09
359.42
375.57
422.31
414.12
396.5
399.46
468.12
381.82
456.24
424.39
430.3
479.67
437.36
461.22
465.63
519.92
456.84
517.77
527.68
506.96
510.08
469.7
493.61
491.15
481.92
491.29
537.19
500.89
511.1
516.8
497.3
524.31
489.19
475.94
434.78
495.89
495.44
492.76
451.14
498.01
490.59
483.03
465.9
461.25
382.99
456.87
404.79
435.7
336.64
343.75
364.51
308.43
368.23
319.54
357.37
321.45
250.61
253.11
310.05
232.31
226.35
223.55
258.33
154.37
165.33
186.06
174.87
131.19
97.69
84.13
135.65
84.15
98.69
47.42
57.4
44.32
-29.96
-43.77
-66.29
-65.63
-11.74
-99.76
-89.74
-124.41
-140.37
-144.14
-140.02
-200.54
-152.95
-198.97
-145.28
-186.95
-261.2
-246.07
-216.95
-286.3
-228.33
-332.1
-295.48
-316.02
-308.92
-358.78
-342.77
-369.32
-402.88
-338.74
-404.11
-422.68
-441.43
-432.28
-373.06
-440.18
-393.21
-433.67
-433.78
-473.3
-476.61
-419.95
-465.9
-489.87
-495.07
-475.66
-470.94
-445.22
-540.38
-462.76
-463.49
-494.96
-542.7
-512.2
-466.57
-488.8
-453.92
-493.72
-460.41
-462.3
-458.94
-481.34
-436.64
-507.85
-447.46
-461.17
-506.02
-500.8
-434.17
-440.82
-475.58
-401.48
-416.6
-408.46
-375.85
-376.56
-415.41
-357.07
-329.51
-359.1
-351.24
-282.75
-318.6
-322.37
-292.07
-297.84
-296.99
-272.68
-202.23
-216.29
-193.85
-208.98
-237.86
-174.57
-117.72
-189.35
-88.32
-118.47
-98.75
-135.44
-74.22
-64.38
-10.89
-39.27
2.52
17.19
-32.1
31.75
25.77
81.34
84.83
77.4
127.6
74.89
178.63
138.19
139.55
148.19
214.76
155.94
244.78
224.24
261.95
283.36
293.1
258.11
251.93
307.2
313.93
289.1
330.08
304.9
400.52
374.31
379.94
385.83
416.91
395.14
425.65
467.59
398.53
468.87
498.75
422.89
443.09
471.11
460.95
1965.58
499.66
464.85
456
528.03
483.78
458.89
452.78
470.48
487.13
465.99
477.61
537.33
547.32
526.14
491.14
527.6
500.86
478.69
515.15
434.55
504.57
455.56
448.51
481.15
485.31
461.96
462.43
446.9
411.88
386.73
417.89
415.9
391.68
345.75
330.7
361.35
382.96
362.21
306.21
312.31
259.89
277.8
246.82
298.58
267.13
201
243.38
191.9
208.18
158.32
167.22
138.05
128.92
97.84
132.47
77.3
75.89
92.75
75.01
69.86
36.02
-19.97
-19.6
4.64
-35.96
-9.72
-71.33
-97.59
-69.75
-75.53
-86.28
-103.68
-193.75
-195.42
-156.37
-217.85
-257.59
-214.57
-260.1
-271.84
-221.86
-318.66
-304.76
-349.91
-338.14
-352.96
-386.45
-335.55
-397.72
-338.11
-354.87
-391.77
-386.83
-412.07
-453.55
-471.68
-470.8
-465.97
-430.84
-481.75
-469.98
-470.32
-493.04
-512.46
-430.93
-496.53
-523.42
-540.22
-536.92
-495.1
-461.68
-511.82
-497.81
-461.97
-455.46
-450.39
-527.57
-508.94
-510.59
-518.41
-511
-513.16
-495.44
-429.93
-509.25
-472.18
-452.97
-481.2
-465.46
-429.22
-479.33
-469.24
-438.04
-407.9
-443.36
-412.96
-380.91
-381.79
-388.44
-394.35
-386.94
-372.84
-323.41
-309.64
-258.37
-337.64
-248.17
-278.15
-242.89
-221.96
-189.24
-231.37
-235.34
-203.9
-129.96
-188.27
-139.94
-86.71
-112.66
-87.73
-102.81
-64.5
-90.25
-79.5
-35.59
-41.44
1501.4
48.9
69.28
96.23
116.64
81.92
95.13
140.18
120.05
191.39
146.63
213.14
211.36
231.85
254.64
191.83
218.43
285.79
248.77
280.19
250.19
311.66
304.87
340.62
340.88
363.04
317.4
337.41
373.72
381.45
355.14
455.7
410.06
414.88
442.97
485.39
467.51
431.47
496.73
500.46
499.32
456.02
441.02
515.38
506.36
536.33
460
518.29
493.26
471.63
511.46
475.32
522.9
497.73
523.88
515.55
485.28
458.13
529.41
512.75
501.64
483.57
511.56
505.31
448.12
480.6
490.07
406.16
400.34
435.09
453.54
370.56
380.83
350.15
379.54
347.43
334.5
366.37
329.21
329.43
313.45
350.9
267.09
295.64
299.97
295.67
254.92
257.51
244.86
212.25
228.23
205.39
124.26
143.04
111.36
79.69
136.1
81.11
92.61
114.69
51.55
51.05
13.14
34.61
31.39
-19.07
-24.33
-18.68
-36.96
-57.16
-131.52
-140.29
-141.73
-142.73
-148.93
-158.62
-193.73
-237.46
-252.08
-245.62
-203.98
-278.43
-252.2
-284.48
-248.9
-301.74
-353.25
-339.71
-374.7
-393.15
-376.34
-377.71
-373.75
-395.09
-437.3
-444.27
-369.93
-434.42
-410.27
-442.85
-422.32
-446.56
-502.16
-513.41
-511.83
-436.92
-500.06
-451.22
-507.39
-471.75
-454.65
-454.01
-458.96
-475.84
-461.91
-518.38
-505.52
-521.6
-491.53
-469.72
-514.03
-480.08
-500.62
-500.88
-458.36
-456.74
-436.4
-435.07
-503.64
-504.74
-404.92
-478.83
-455.46
-470.2
-461.31
-367.24
-376.71
-360.77
-396.04
-399.25
-366
-315.37
-335.79
-350.61
-304.41
-334.72
-353.08
-244.46
-243.69
-307.78
-210.94
-275.31
-230.77
-182.13
-239.6
-155.35
-203.94
-121.59
-134.37
-157.57
-86.79
-84.47
-98.38
-119.86
-28.65
2.63
-6.01
-9.56
51.64
2.43
65.45
83.5
95.18
68.7
101.43
138.61
99.6
144.31
137.72
119.38
180.25
190.3
235.45
216.05
220.79
278.52
306.93
296.08
282.01
253.83
339.86
313.9
308.81
315.49
348.73
333.23
351.73
382.11
358.87
384.49
405.66
455.09
380.54
470.81
411.75
436.91
417.69
454.35
514.04
455.32
522.93
467.56
526.43
456.39
454.54
502.8
536.89
497.45
518.67
512.72
460.68
529.23
533.61
544.71
544.17
484.03
494.24
503.67
475.63
509.57
486.39
520.89
512.6
437.33
496.43
458.68
443.3
435.2
475.77
464.33
423.16
379.25
364.93
351
391.64
318.24
343.99
302.4
305.68
283.18
308.32
250.17
321.69
258.83
283.73
241.72
220.05
242.07
207.25
211.72
158.75
194.72
148.53
86.74
128.89
66.31
130.4
85.07
94.54
-3.12
-11.41
43.98
-40.24
-15.53
-41.43
-18.94
-96.31
-99.34
-85.15
-60.35
-162.09
-127.55
-104.72
-179.39
-163.23
-186.08
-212.05
-224.48
-226
-297.25
-254.98
-288.51
-248.98
1218.55
-269.15
-320.97
-309.92
-318.23
-332.48
-378.46
-371.44
-408.29
-374.61
-364.9
-414.11
-431.26
-422.19
-392.74
-433.63
-478.59
-461.11
-503.97
-436.76
-501.98
-453.08
-511.39
-467.19
-521.35
-502.7
-526.19
-495.17
-542.91
-523.84
-468.83
-510.07
-520.56
-485.77
-508.57
-489.16
-466.77
-482.58
-480.66
-491.48
-437.83
-504.5
-456.55
-512.23
-465.03
-412.42
-497.33
-445.03
-427.23
-431.2
-372.03
-427.68
-373.92
-425.14
-396.38
-384.52
-388.32
-378.63
-292.94
-296.56
-313.36
-331.03
-282.15
-275.17
-277.08
-307.78
-240.24
-236.47
-213.18
-208.66
-190.8
-179.3
-201.98
-173.37
-104.84
-80.14
-80.79
-58.28
-49.71
-96.94
-21.77
-10.63
-46.02
-30.9
25.4
43.97
23.46
105.82
86.13
84.97
70.87
77.44
119.8
133.46
155.44
137.81
211.05
222.15
213.99
196.3
265
232.56
254.2
260.73
271.54
276.79
320.18
320.79
383.47
388.94
393.47
399.91
352.55
420.93
442.07
404.72
396.01
456.11
458.23
477.31
421.01
501.04
460.87
456.6
452
509.95
496.32
454.47
509.98
494.06
494.88
535.57
494.04
451.89
526.07
528.55
535.74
525.16
463.1
448.62
467.37
447.16
501.6
450.12
495.11
451.04
465.59
433.19
490.32
482.11
466.4
445.15
415.62
427.85
439.01
376.19
407.97
354.36
380.42
366.36
378.99
392.08
343.05
360.1
309.77
265.24
253.89
1750.08
226.42
232.11
274.01
210.75
190.27
231.36
153.75
204.85
161.27
117.2
120.16
123.13
150.73
46.59
97.34
76.25
34.12
58.2
43.96
-42.43
-50.6
-16.98
-65.41
-13.48
-77.79
-71.87
-138.07
-161.75
-99.8
-146.62
-111.13
-185.4
-214.51
-215.68
-209.31
-190.1
-217.38
-259.96
-241.87
-321.57
-331.96
-285.02
-321.59
-325.13
-376.09
-394.72
-335.79
-332.18
-357.57
-432.63
-366.25
-394.21
-415.63
-457.62
-445.27
-403.6
-430.03
-425.22
-436.11
-485.05
-466.58
-465.64
-471.41
-470.96
-475.1
-458.6
-480.05
-533.06
-537.41
-546.03
-534.16
-515.77
-475.79
-517.3
-502.87
-508.08
-464.36
-478.31
-440.1
-492.42
-490.88
-439.43
-473.24
-446.89
-425.88
-495.59
-404.4
-398.99
-487.51
-422.4
-396.87
-367.01
-358.6
-347.74
-389.97
-328.1
-377.23
-322
-373.81
-383.14
-363.07
-270.93
-279.31
-289.14
-283.21
-305.11
-272.75
-237.69
-210.87
-222.04
-191.38
-162.09
-195.82
-139.39
-152.56
-172.37
-80.83
-117.59
-114.23
-69.32
-16.54
-65.05
20.73
20.44
0.54
57.81
86.14
47.77
102.68
127.27
118.06
75.23
82.13
166.27
138.24
209.05
220.21
186.18
185.25
177.74
261.71
294
299.16
287.54
321.26
342.78
321.14
323.02
299.96
334.17
380.24
406.14
362.9
370
447.8
405.11
395.57
469.21
394.84
411.3
469.28
418.73
436.12
504.52
473.18
449.94
515.72
512.58
519.9
448.82
528.23
447.95
478.44
489.1
521.46
500.66
460.59
450.47
452.34
542.13
475.41
536.06
468.99
459.42
441.71
455.54
437.11
490.8
510.37
419.4
485.97
452.64
433.63
405.62
382.93
369.29
448.66
400.68
345.27
390.33
377.35
386.87
376.67
355.85
348.59
320.59
299.4
254.05
308.51
276
228.67
197.72
254.3
210.04
203.75
143.21
205.78
189.92
164.17
86.2
141.73
141.33
65.18
23.19
101.39
76.01
-8.1
23.27
18.06
15.26
-10.1
-36.89
-54.68
-75.52
-67.9
-141.67
-117.12
-149.12
-120.68
-202.77
-176.03
-187.21
-235.58
-237.57
-260.14
-289.71
-233.43
-263.9
-312.37
-313.62
-351.63
-329.56
-328.1
-392.2
-361.65
-412.98
-346.57
-436.6
-440.99
-455.62
-429.37
-416.37
-401.57
-433.37
-423.47
-443.46
-475.79
-424.52
-434.01
-464.61
-466.39
-524.24
-501.08
-440.98
-527.23
-529.17
-496.08
-481.95
-464.6
-540.25
-523.82
-515.19
-456.23
-492.55
-446.5
-490.12
-512.18
-495.01
-531.1
-488.36
-468.7
-459.48
-465.23
-454.99
-464.14
-495.53
-458.84
-429.06
-470.94
-372.86
-449.43
-415.92
-431.32
-352.48
-386.97
-351.56
-332.2
-306.99
-312.73
-329.19
-304.15
-325.33
-293.94
-312.44
-236.77
-191.09
-207.51
-255.62
-211.99
-225.47
-127.34
-187.37
-137.03
-132.26
-128.74
-134.43
-116.91
-69.75
-58.91
-71.98
23.04
38.13
1457.69
24.27
38.37
26.54
113.75
114.8
89.87
120.84
92.92
149.11
129.38
175.27
187.9
207.2
171.86
198.17
188.8
252.11
272.32
241.79
323.66
343.59
325.8
318.96
297.57
359.67
309.46
321.88
414.47
340.59
347.68
453.36
463.11
383.54
473
399.13
485.82
494.26
473.58
429.4
448.29
432.6
520.59
456.74
462.77
517.96
456.84
483.4
492.58
515.68
509.66
497.75
461.51
476.44
526.82
470.92
505.98
478.88
530.89
445.38
480.2
464.3
477.42
446.21
447.12
459.9
486.24
453.3
422.03
391.44
385.52
456.81
398.77
429.62
345.22
392.85
404.48
325.7
321.38
378.69
371.93
303.04
329.31
293.05
245.22
240.12
216.35
234.95
217.28
174.85
233.03
212.83
208.85
165.93
150.7
113.74
162.6
96.19
127.96
54.17
59.32
71.22
-12.58
-36.71
44.85
-61.18
-76.16
-52.6
-89.19
-50.74
-112.11
-138.73
-159.48
-162.58
-110.07
-135.54
-149.55
-229.14
-170.03
-208.23
-273.71
-267.02
-285.35
-224.68
-250.76
-260.35
-305.84
-368.96
-328.34
-347.94
-346.07
-346.87
-423.76
-349.45
-410.34
-392.61
-383.56
-440.78
-402.86
-405.66
-403.7
-456.12
-416.84
-476.94
-517.09
-467.43
-445.17
-513.08
-493.39
-517.59
-475.9
-508.79
-478.48
-468.8
-542.08
-475.31
-456.61
-530.98
-529.39
-506.29
-498.2
-536.83
-447.11
-480.87
-518.29
-464.79
-477.19
990.81
-424.65
-487.97
-464.16
-493.76
-483.23
-467.43
-430.79
-419.85
-459.57
-406.98
-422.74
-336.86
-419.65
-357.42
-309.47
-335.57
-308.36
-320.96
-292.73
-264.23
-251.21
-248.25
-246.74
-236.91
-263.56
-172.86
-226.99
-152.14
-177.44
-126.57
-174.3
-166.66
-81.04
-90.35
-133.13
-79.05
-102.53
-44.3
-69.06
15.4
-49
55.25
66.34
28.89
24.27
74.81
131.29
115.81
93.48
160.46
180.5
159.66
203.48
231.68
234.66
246.16
232.29
258.36
264.52
239.4
311.77
252.97
284.67
350.79
339.42
367.21
368.85
388.18
347.76
372.08
375.28
416.41
457.4
416.34
387.8
397.25
408.57
494.8
491.32
445.46
432.17
482.67
519.61
483.25
447.37
511.94
495.94
492.88
509.37
471.28
462.21
518.63
465.84
549.13
460.24
497.32
469.04
468.94
490.39
530.61
510.58
502.97
431.36
446.75
448.58
490.24
473.03
433.66
461.03
469.75
420.86
459.97
433.4
429.07
383.74
406.05
423.93
405.27
322.31
355
311.58
340.15
341.63
283.61
258.59
307.3
308.4
229.53
207.07
212.81
175.36
236.37
188.08
182.38
138.13
169.9
127.06
133.56
89.31
80.35
59.83
0.09
73.42
2.59
12.47
-53.45
-44.16
-90.48
-62.98
-81.23
-42.21
-101.94
-98.82
-130.31
-156.17
-206.47
-182.11
-205.89
-217.34
-235.76
-225.05
-270.34
-224.94
-219.85
-305.64
-307.79
-296.75
-285.9
-292.83
-323.05
-395.31
-387.77
-356.44
-360.35
-368.35
-384.96
-408.59
-437.94
-438.51
-413.9
-437.99
-460.7
-406.22
-439.25
-423.01
-474.05
-469.13
-514.15
-485.21
-519.17
-519.55
-485.55
-446.2
-506.96
-512.52
-535.91
-471.74
-503.21
-497.77
-482.42
-512.11
-532.13
-489.84
-446.92
-486.79
-453.32
-505.18
-517.48
-438.39
-450.69
-439.95
-478.01
-475.22
-437.51
-430.56
-444.98
-416.17
-426.6
-391.46
-421.08
-350.96
-408.26
-378.95
-349.06
-339.71
-318.88
-358.82
-276.49
-238.4
-296.84
-279.5
-227.02
-240.13
-216.56
-251.27
-228.36
-230.96
-137.33
-111.23
-111.53
-108.97
-92.06
-78.75
-30.21
-32.38
-45.01
-45.69
-62.72
-0.19
53.06
5.7
18.19
80.28
109.44
62.77
139.19
146.98
172.33
160.93
145.63
124.89
212.16
156.17
245.31
256.01
245.25
218.43
236.26
280.36
308.68
260.75
354.38
353.92
350.25
362.05
315.87
420.01
405.13
345.16
438.16
399.41
462.53
407.29
422.19
425.74
460.57
443.87
472.69
482.64
509.14
507.68
482.37
523.66
456.03
445.35
537.14
532.63
458.17
512.07
497.01
476.37
519.67
467.81
547.09
481.15
506.01
511.92
532.01
490.02
483.9
510.67
463.04
437.08
496.81
454.56
435.32
459.19
471.77
441.91
437.54
392.33
446.38
434.9
400.57
426.47
373.49
336.45
298.5
322.36
316.52
344.56
282.63
1791.93
287.44
240.99
257.46
246.82
266.02
165.68
167.2
205.02
214.51
159.36
115.34
169.4
79.86
141.45
58.96
48.18
89.36
41.13
15.31
-36.15
-13.11
-30.65
-82.89
-16.01
-110.07
-42.84
-104.37
-131.47
-97.92
-113.61
-150.53
-197.36
-203.25
-150.91
-221.72
-183.34
-199
-254.04
-288.25
-287.12
-338.36
-309.56
-345.41
-310.43
-337.71
-317.49
-385.79
-366.04
-333.49
-402.88
-390.33
-453.94
-379.58
-389.31
-408.72
-486.57
-398.27
-491.68
-428.08
-480.09
-494.68
-450.23
-518.54
-522.14
-489.06
-457.75
-518.63
-481.54
-458.71
-468.65
-455.36
-535.27
-502.36
-493.39
-512.97
-455.07
-516
-464.23
-458.11
-513.68
-523.53
-458.11
-443.08
-498.83
-435.05
-432.51
-414.38
-457.41
-484.59
-477.71
-409.36
-434.19
-370.76
-442.52
-436.83
-376.46
-405.54
-364.68
-300
-368.27
-366.56
-312.15
-306.52
-248.6
-299.68
-311.19
-298.45
-288.48
-191.15
-218.39
-249.79
-220.48
-161.32
-142.3
-157.36
-131.28
-147.97
-125.77
-69.41
-82.24
-12.98
-30.17
-18.34
-49.33
29.48
34.17
16.4
37.34
88.52
36.74
55.82
141.13
159.33
162.7
132.71
149.67
215.93
223.07
168.72
191.5
213.36
211.96
288.22
303.55
313.18
333.54
309.72
349.07
367.19
384.85
388.96
363.9
352.24
350.84
445.06
412.55
423.09
410.74
457.28
412.88
474.62
465.35
483.39
511.79
485.66
505.51
1967.3
519.19
455.36
532.05
463.86
505.85
534.14
529.53
493.69
476.23
509.15
510.16
480.72
495.87
450.26
456.15
526.83
494.12
521.27
459.99
437.12
445.7
427.65
440.6
426.07
443.55
460.95
474.57
437.73
457.2
447.44
449.4
438.75
349.1
323.51
329.8
384.88
345.79
346.19
362.18
270.31
340.64
297.59
226.7
285.41
248.05
259.99
180.44
249.27
232.11
196.95
174.92
97.88
102.85
140.07
119.35
104.3
79.04
68.66
35.79
26.21
55.99
34.65
23.82
-66.61
-39.47
-74.71
-61.35
-114.23
-93.92
-140.5
-90.51
-157.24
-161.74
-177.38
-182.52
-169.6
-261.85
-253.19
-288.95
-241.07
-300.93
-273.64
-298.4
-268.52
-302.55
-307.13
-361.28
-360.3
-343.29
-407.51
-346.57
-359.64
-378.34
-391.78
-379.96
-436.4
-405.02
-489.08
-497.31
-448.99
-425.03
-495.82
-521.27
-503.96
-447.44
-523
-479.43
-520.96
-511.28
-522.44
-526.54
-480.91
-509.83
-542.65
-501.33
-460.96
-455.21
-535.79
-484.67
-485.81
-460.2
-443.58
-530.11
-453.27
-481.71
-483.71
-480.7
-464.32
-469.32
-430.2
-419.4
-473.65
-426.9
-387.29
-440.14
-428.27
-370.94
-379.13
-392.67
-362.08
-341
-371.35
-280.17
-295.76
-271.53
-321.6
-312.34
-241.79
-261.61
-196.72
-225.99
-232.23
-148.29
-162.65
-140.69
-179.67
-115.87
-164.5
-142.49
-131.24
-61.42
-19.45
-86.33
-35.77
-37.66
1460.05
40.22
66.29
33.66
29.91
89.63
59.69
70.02
77.34
183.83
158.78
134.96
143.84
184.4
223.09
187.44
245.18
229.6
229.16
271.21
261.65
287.47
340.58
309.41
303.5
381.47
363.03
364.37
415.97
429.71
414.08
435.7
430.9
423.02
431.69
402.24
399.75
460.38
489.69
504.96
447.8
477.65
509.32
474.99
511.02
474
536.66
450.01
469.14
534.05
457.72
455.34
477.13
541.39
518.4
476.71
522.34
465.84
532.47
525.77
526.11
503.01
448
469.09
498.97
498.96
416.67
434.79
471.18
386.66
466.84
460.49
442.29
407.74
378.39
364.47
333.98
369.85
399.61
383.11
362.37
345.76
293.41
272
330.69
225.33
271.5
258.91
239.13
258.18
239.37
236.48
192.84
140.05
162.84
120.07
105.74
156.37
141.17
41.78
61.48
68.9
30.27
55.33
40.44
8.53
-50.69
-29.56
-80.05
-51.41
-123.67
-55.92
-152.78
-179.43
-121.97
-122.68
-221.96
-147.16
-153.24
-205.1
-228.61
-239.28
-222.48
-228.03
-283.92
-244.72
-343.72
-290.47
-300.28
-328.66
-329.61
-381.22
-378.99
-415.39
-364.02
-421.54
-410.9
-429.82
-463.76
-467.11
-454.95
-490.37
-487.04
-496.79
-460.52
-511.68
-521.06
-525.15
-510.55
-457.99
-531.61
-520.12
-545.53
-459.44
-458.67
-526.04
-494.2
-506.89
-466.4
-484.55
-470.9
-496.78
-483.38
-450.88
-451.38
-502.21
-510.54
999.72
-441.15
-513.48
-504
-401.86
-474.86
-464.57
-411.46
-432.13
-388.16
-443.09
-379.66
-382.71
-330.32
-380.3
-356
-385.54
-323.4
-344.1
-271.17
-260.15
-297.59
-267.39
-218.87
-230.1
-273.82
-236.79
-209.86
-152.74
-134.11
-203.21
-154.09
-165.99
-115.98
-111.43
-48.11
-73.7
-55.01
-40.26
8.07
-57.16
-12.67
47.08
-16.56
76.1
100.21
102.95
115.08
132.09
70.75
154.82
172.37
171.16
210.68
185.9
180.92
175.93
256.36
246.52
222.1
240.1
314.45
245.46
325.22
324.11
361.23
312.25
326.38
358.79
339.86
355.43
434.39
364.88
436.28
426.45
466
387.94
438.08