173.96
134.01
113.47
150.75
138.48
98.61
138.18
189.91
217.3
224.79
178.24
134.96
118.16
85.85
89.36
129.48
118.27
90.2
80.1
50.64
14.71
-16.56
-63.47
98.79
476.68
242.63
-314.66
-170.96
-34.13
-194.86
-120.94
-150.58
-268.56
-242.66
-229.58
-218.36
-221.22
-245.63
-216.67
-192.63
-178.67
-156.37
-158.88
-157.25
-191.55
-231.58
-264.46
-285.8
-63.31
191.77
221.64
209.33
124.87
3.17
-22.73
1.37
-17.48
-98.22
-139.86
-134.14
-133.94
143.34
634.05
344.84
-264.12
-86.17
9.72
-105.45
118.61
132.87
6.28
16.58
-41.83
-163.36
-241.73
-193.98
-137.27
-188.03
-197.47
-180.36
-232.2
-250.92
-228.12
-223.87
-209.06
-186.39
-201.05
-251.78
-237.66
-156.41
-152.83
-193.73
-172.23
-176.8
-268.66
-154.86
238.87
168.05
-302.33
-314.86
-217.47
-259.77
-132.36
-107.03
-143.61
-86.41
-179.73
-335.67
-332.22
-306.11
-344.81
-312.56
-262.23
-317.69
-331.64
-217.13
-149.12
-131.08
-52.53
-63.7
-140.6
-61.22
15.2
-22.33
3.87
40.56
-5.21
-35.37
2.32
227.54
443.87
116.33
-243.84
-65.06
14.38
-68.93
49.87
108.15
74.01
81.71
42.47
-29.3
-29.95
33.43
39.59
-31.89
-24.5
57.27
78.7
75.18
67.93
6.28
-47.72
-2.66
54.05
27.9
70.23
166.21
129.77
100.95
177.85
180.95
134.87
363.82
649.73
343.31
-2.02
200.92
238.89
102.02
203.64
243.73
244.16
340.17
349.91
252.75
151.25
129.59
176.75
175.66
136.47
149.7
174.33
168.39
175.69
142.77
80.11
99.08
126.14
123.36
146.05
149.22
129
126.56
144.34
140.95
88.8
41.06
-8.3
-60.47
-90.12
-97.66
169.27
403.05
-13.35
-304.37
-75.95
-113.3
-188.13
-15.92
-13.45
-61.28
23.34
45.84
-20.6
-23.03
1.59
-41.24
-31.74
36.85
37.38
55.11
102.23
72.64
41.57
78.3
111.3
73.85
69.06
102.08
19.15
-0.23
103.52
88.23
48.69
81.1
50.11
-56.33
127.52
603.07
358.77
-227.66
-60.61
-3.18
-169.07
-50.73
-259.6
-449.86
-332.24
-439.38
-500.48
-367.1
-347.52
-328.58
-261.8
-244.62
-199.35
-121.82
-95.17
-80.22
16.5
81.64
22.24
19.95
77.69
62.79
86.89
151.97
133.73
96.25
111.67
159.23
184.29
174.75
123.79
242.22
562
330.4
-120.29
80.35
163.91
-25.96
100.02
180.05
136.96
210.35
222.98
90.72
31.9
87.18
63.6
19.68
62.83
73.13
2.43
-44.18
-3.38
24.14
-2.62
5.88
10.72
-6.79
-13.22
-38.27
-45.07
-22.71
-25.02
-51.26
-38.23
17.59
13.34
-34.35
-63.11
-105.53
-185.84
-103.77
292.33
257.75
-303.84
-333.87
-125.87
-201.98
-150.28
-97.45
-127.07
-31.04
9.69
-77.35
-123.2
-145.36
-167.51
-111.38
-95.5
-135.1
-114.37
-159.46
-249.1
-234.39
-220.31
-224.36
-156.45
-96.71
-66.29
-28.16
-46.23
-97.92
-97.09
-61.2
-54.2
-41.55
12.88
8.28
-30.49
-20.26
-48.21
-95.85
-161.78
-106.86
278.09
318.84
-150.38
-224.9
-71.36
-113.18
-84.89
-50.58
-69.88
-37.03
-8.02
-46.06
-134.85
-160.37
-122.57
-127.91
-123.3
-64.97
-32.69
-33.25
-35.03
-27.75
-2.35
-3.92
-10.21
35.38
55.33
38.62
55.45
75.18
53.74
-11.33
-33.16
-7.56
-72.94
-113.54
-60.8
-64.52
-69.38
-82.6
97.98
478.34
191.71
-293.37
-82.11
-15.29
-112.46
9.01
-73.06
-80.54
64.43
69.61
55.91
55.43
64.17
75.71
49.98
31.21
10.77
-4.04
5.43
24.47
57.14
67.4
51.18
17.73
-31.6
-33.97
-26.79
-34.21
17.02
60.77
52.91
60.17
79.5
69.91
68.21
90.5
55.32
0.01
223.25
534.38
182.55
-270.5
-83.82
-40.12
-148.97
-11.16
-24.21
-46.74
50.94
56.73
40.13
-5.18
-59.88
-8.76
36.9
43.17
92.3
94.2
88.24
159.59
141.75
59.41
52.83
42.59
30.77
63.66
67.13
40.25
49.09
75.25
79.1
72.84
45.15
9.95
5.41
-34.54
-80.97
132.78
330.16
-50.65
-365.73
-158.88
-125.59
-179.85
-48.23
-49.8
-76.32
-28.04
-22.65
-38.85
-82.72
-90.7
-34.98
-28.3
-36.72
16.3
39.05
10.59
15.17
47.4
100.99
121.51
92.81
135.85
186.49
149.3
111.23
153.8
199.73
124.91
58.17
89.41
80.25
2.72
177.9
588.66
322.78
-216.77
-19.74
50.82
-119.73
39.27
42.74
-20.37
62.7
84.68
102.44
98.3
74.91
121.94
121.98
77.21
97.98
78.05
70.2
151.2
155.08
130.03
148.88
116.77
70.46
30.21
-17.28
-26.37
-35.78
-51.48
-36.1
-32.24
-26.93
-40.21
-170.96
-109.89
272.86
124.2
-424.23
-353.29
-184.46
-294.21
-203.19
-125.77
-121.24
-36.71
-47.75
-89.81
-79.77
-133.36
-155.36
-62.6
-26.8
-45.91
-11.63
-10.49
-22.36
13.5
-11.32
-29.66
38.36
48.57
16.3
38.89
61.77
66.69
86.47
114.07
94.58
58.39
68.86
26.58
-75.66
0.32
244.87
13.65
-579.22
-614.02
-425.54
-454.34
-371.57
-291.37
-255.01
-139.42
-35.43
12.12
-21.74
-47.94
16.63
53.97
39.82
101.17
186.04
175.45
141.19
166.99
210.2
208.71
201.62
234.28
241.43
194.55
179.68
183.22
130.09
115.87
154.1
129.77
75.81
19.57
-121.37
-67.07
329.25
182.12
-385.34
-306.84
-168.13
-275.68
-97.79
-0.68
-83.67
-56.28
8.88
21.8
-16.3
-3.41
45.5
26.7
28.98
49.2
11.27
-6.96
-7.84
-14.7
25.83
45.08
-5.07
-43.51
-20.2
29.93
42.35
27.5
10.42
7.91
31.94
35.99
-9.55
-55.48
-37.52
-23.61
-39.45
-16.71
-39.4
-170.63
-114.78
342.09
424.62
-137.68
-287.02
-115.87
-204.87
-176.55
-84.17
-126.98
-162.9
-197.04
-252.41
-341.07
-363.85
-280.22
-244.49
-229.53
-189.47
-180.53
-138.16
-59.75
-39.53
-59.67
-29.64
31.34
27.9
25.26
70.9
74.88
61.99
74.56
81.09
57.2
20.72
52.42
109.99
110.4
104.48
103.86
113.69
60.76
78.54
441.69
406.95
-166.64
-205.04
-79.84
-212.95
-139.66
-109.18
-137.69
-62.34
-94.61
-128.72
-141.35
-234.16
-192.81
-66.38
-59.79
-30.04
13.92
-17.71
-16.99
4.74
18.55
50.84
54.49
54.28
86.55
102.15
95.64
66.69
37.75
33.08
4.48
0.92
28.42
15.39
42.59
69
-15.88
-53.64
-11.91
-66.46
-67.69
250.14
397.57
-28.54
-232.57
-27.62
-38.01
-79.19
2.71
49.07
107.77
157.04
183.28
150.91
55.56
23.48
53.73
76.63
85.3
79.75
80.26
103.45
128.9
134.53
133.22
122.6
105.61
119.62
101.3
19
-4.01
35.43
36.84
16.21
1.95
-32.28
-59.1
-65.62
-105.24
-127.29
-89.34
-88.05
-142.73
70.46
534.34
295.11
-324.03
-172.53
18.47
-103.65
-5.39
24.51
23.58
141.91
199.41
187.2
97.09
62.89
139.04
180.91
212.13
189.63
69.43
0.46
-6.2
-12.75
3.1
18.64
9.13
17.29
35.53
5.16
-36.14
-43.64
-48.47
-51.18
-39.55
-26.62
-11.91
7.77
-32.93
-12.83
305.39
365.92
-131.43
-309.06
-117.89
-109.25
-80.21
-4.91
-35.28
-24.56
28.47
31.49
8.18
-23.7
-29.71
7.66
24.32
3.16
-21.62
-20.4
0.3
-19.14
-85.95
-136.2
-117.66
-61.65
-57.15
-64.46
0.67
59.81
68.55
82.08
114.3
142.59
132.01
103.3
101.81
102.54
49.44
-55.69
106.2
483.47
217.31
-256.21
-51.63
14.12
-156.13
-1.81
50.09
-1.77
85.1
87.27
-6.15
-78.05
-150.54
-202.07
-222.51
-253.66
-247.82
-147.68
-65.59
-62.76
-44.7
-29.19
-53.96
-72.48
-76.36
-74.36
-53.61
-29.46
-43.5
-117.25
-262.53
-417.9
-499.83
-521.89
-501.71
-507.85
-413.8
25.48
197.95
-241.71
-361.92
-146.38
-191.57
-169.53
-58.31
-60.65
11.35
117.47
173.27
187.41
155.66
168.16
188.82
160.48
150.82
166.24
188.02
184.52
176.22
220.47
247.99
230.84
196.11
186.92
248.04
247.84
208.5
260.51
277.88
256
271.37
260.27
236.73
173.73
51.31
246.17
616.95
298.34
-126.45
102.12
133.56
-22.43
87.79
64.37
22.36
106.37
55.74
-51.48
-98.89
-113.84
-91.69
-56.65
-15.99
6.67
-9.36
-37.07
-69.99
-95.5
-118.96
-130.91
-112.29
-113.71
-135.53
-123.36
-76.33
-32.9
-24.51
-50.02
-112.02
-161.02
-208.5
-328.45
-116.68
320.67
23.05
-390.71
-125.41
-83.04
-177.41
15.35
9.21
-30.06
82.92
121.97
74.21
9.3
1.61
6.56
-37.33
-64.87
-56.6
-26.95
-26.35
-56.98
-25.51
-6.86
-51.31
-49.14
-32.98
-43.35
-22.75
-9.53
-20.79
-15.84
-15.96
5.92
38.39
5.47
216.67
579
254.62
-199.55
12.99
89
9.28
138.8
89.54
62.16
149.75
53.09
-48.27
-10.69
-0.56
-41.87
-53.63
-19.13
-10.27
-72.57
-99.4
-108.41
-125.68
-76.05
-76.05
-101.76
-70.66
-132.12
-203.08
-163.07
-148.21
-163.79
-180.23
16.52
374.03
39.3
-427.13
-145.72
-106.29
-253.79
-88.35
-148.47
-156.12
-7.52
-82.98
-159.45
-169.14
-226.03
-231.96
-177.13
-140.72
-150.17
-111.84
-37.66
-66.11
-71.99
15.8
23.91
12.61
83.26
97.28
70.22
81.62
62.26
87.73
158.66
130.4
62.1
54.29
256.35
441.68
84.48
-260.52
-113.09
-51.63
-74.05
-2
3.7
46.54
64.03
-18.09
-43.91
-12.7
-3.08
42.61
76.66
8.02
29.93
135.39
116.29
107.72
157.25
97.23
8.3
51.29
69.93
-22.82
-10.31
13.98
-72.21
-52.72
49.68
71.62
65.11
104.16
119.18
61.32
53.78
110.34
55.77
191.19
607.68
296.18
-311.12
-61.77
69.92
-99.42
87
63.09
-55.66
55.12
1.78
-155.81
-149.32
-89.87
-109.23
-113.4
-74.93
-75.38
-20.53
47.55
-10.94
-18.82
43.46
34.05
62.54
119.2
116.21
120.21
128.8
105.41
60.39
23.93
48.9
118.36
155.94
171.21
192.08
165.94
117.69
73.52
-35.35
0.6
368.87
446.96
15.54
-105.24
47.57
-14.53
-49.19
-41.43
-91.78
-48.63
9.25
12.52
5.22
-21.94
-27.83
-28.83
-42.06
-14
3.78
-62.52
-132.28
-113.14
-87.54
-88.12
-53.89
-24.52
-39.43
-84.79
-81.49
-17.2
24.13
70.42
66.54
6.2
37.23
37.41
-46.18
-68.67
-100.45
-158.3
-149.22
-130.72
-135.98
-143.55
-90.65
239.06
448.9
13.99
-253.71
-19.45
-29.35
-127.3
-86.06
-119.8
-119.08
-75.54
-54.79
-80.88
-140.69
-90.28
-20.26
-35.55
-11.03
5.03
-41.21
-52.31
-42.41
-37.17
-25.51
5.45
17.82
-63.81
-90.1
-41.34
-80.23
-55.83
35.64
16.37
-17.3
-23.83
-43.47
-47.71
-52.84
-59.09
-53.93
-34.59
-1.84
-30.21
175.23
620.92
303.56
-279.5
-44.62
32.86
-176.41
-56.86
-77.03
-104.27
13.07
-24.82
-50.72
-47.11
-96.53
-60.71
-4.78
-7.4
7.28
36.18
47.77
74.35
107.14
106.74
74.02
29.88
-8.94
-29.02
17.29
52.46
24.44
64.44
114.63
86.56
58.96
40.85
25.3
-3.71
-123.43
3.19
452.42
203.87
-387.1
-201.42
-113.87
-304.91
-135.64
-63.74
-64.65
21.99
11.49
19.17
-29.55
-64.58
28.34
30.23
23.83
70.27
29.3
48.33
133.47
115.92
100.88
123.06
54.5
-16.31
-8.77
-24.36
-25.4
18.35
-64.74
-183.21
-149.09
-129.27
-228.24
-94.44
329.63
172.99
-387.05
-232.52
9.99
-145.59
-37.89
43.8
-75.58
19.34
118.46
37.63
-31.45
-53.2
-67.26
-94.26
-108.94
-80.53
-59.1
-38.54
-12.34
-1.38
32.12
106.22
164.11
156.29
159.78
177.35
138.73
151.5
196.69
166.39
167.07
135.63
202.69
572.86
433.94
-105.39
37.28
176.24
-42.04
56.33
144.06
105.79
185.68
166.19
-0.79
-154.11
-201.19
-186.75
-231.97
-252.94
-197.6
-206.44
-216.73
-155.68
-132.45
-137.82
-104.5
-36.74
25.01
42.82
44.03
59.43
80
103.14
90.27
52.09
8.85
125.42
495.21
299.21
-392.78
-382.96
-176.58
-271.49
-148.18
-60.11
-59.17
68.29
146.06
161.26
126.83
65.71
81.21
87.61
52.59
72.7
27.63
-84.35
-83.67
-70.7
-119.18
-141.41
-145.39
-172.45
-167.15
-96.08
-73.55
-56.15
13.2
-8.51
-115.8
-264.5
-427.22
-534.85
-479.36
-89.37
97.56
-295.1
-413.66
-159.97
-132.72
-111.65
-30.66
-22.68
45.41
99.19
75.89
32.74
-9.63
-40.43
-94.38
-143.5
-152.11
-146.7
-121.3
-66.31
-1.32
43.45
75.84
118.83
127.18
108.04
148.45
206.5
216.32
254.07
286.7
272.28
297.97
287.73
209.51
119.13
266.38
698.18
473.64
-105.7
76.96
225.62
63.34
150.08
188.09
238.76
341.32
263.98
188.95
160.7
118.64
148.55
187.8
196.95
217.79
169.1
90.73
122.53
178.91
137.85
105.74
181.91
209.04
107.52
86.6
125.02
68.13
67.53
53.65
-32.26
202.98
410.15
55.65
-183.7
-25.9
-3.82
-60.91
-32.38
-4.61
22.13
38.35
17.74
-63.24
-118.15
-84.7
-62.83
-61.83
-39.81
-49.93
-97.83
-112.77
-72.85
-68.89
-121.71
-72.45
-28.09
-133.04
-124.93
-67.89
-157.38
-134.59
-71.39
-219.59
-111.86
273.91
-18.52
-489.93
-224.12
-117.94
-281.44
-118.93
-58.66
-107.75
-26.58
-37.69
-152.56
-187.17
-129.5
-110.09
-155.48
-150.17
-83.11
-110.27
-198.34
-166.37
-114.16
-135.36
-129.83
-109.31
-115.12
-112.75
-69.34
-50.97
-78.41
-61.28
-76.19
-177.02
-107.58
222.12
219.7
-320.06
-631.69
-546.52
-465.62
-366.47
-285.7
-261.52
-151.39
-109.49
-197.82
-171.6
-87.77
-110.98
-148.17
-129.06
-106.99
-84.27
-26.42
8.6
12.96
59.47
84.32
46.65
78.66
168.51
196.81
201.96
231.87
252.59
217.49
160.68
130.84
42.98
-114.5
59.57
551.56
366.42
-189.96
-57.72
80.82
-20.31
92.73
83.83
9.55
30.66
-16.15
-86.06
-154.59
-179.49
-107.3
-56.16
-26.95
-64.78
-268.1
-296.41
-130.25
-131.89
-83.18
80.42
100.13
112.4
168.37
164.68
175.71
191.91
169.45
182.3
220.28
227.92
240.77
262.97
229.34
166.7
379.14
653.08
250.18
-201.01
-66.05
-61.86
-116.45
0.06
-16.88
10.77
74.87
17.73
-73.1
-143.16
-148.32
-117.53
-61.5
18.51
53.75
83.04
123.72
149.55
169.31
156.09
110.77
84.23
146.39
231.29
226.44
224.28
232.03
173.48
142.19
120.14
42.18
-7.33
-21.9
-22.43
-77.18
-8.86
427.43
440.71
-152.03
-262.23
-105.95
-171.79
-271.53
-643.72
-809.23
-455.34
-270.61
-200.2
-89.74
-95.82
8.54
151.16
196.25
259.12
256.63
190.53
194.81
234.38
213.56
120.25
85.13
114.62
68.22
58.41
133.5
108.09
54.84
135.31
194.68
106.55
56.52
100.15
91.89
-116.77
-364.91
-290.39
-395.84
-674.06
-370.1
-132.89
-196.83
-41.44
19.29
48.36
211.1
219.64
137.63
179.33
170.88
-165.52
-476.21
-387.99
-274.43
-280.1
-204.74
-169.42
-174.16
-70.45
12.84
-11.7
45.73
151.3
124.28
99.7
151.76
197.75
242.99
288.73
294.42
247.07
187.2
354.86
710.11
426.22
-123.08
96.07
248.78
81.69
180.96
193.48
207.65
269.93
149.35
97.46
124.24
132.19
127.9
72.11
66.58
128.87
106.89
30.52
34.32
38.02
10.13
30.01
69.25
98.95
45.53
-11.91
50.49
25.44
-46.17
127.36
240.29
-73.08
-276.22
-183.11
-267.39
-247.41
-110.4
-192.41
-149.75
-88.3
-233.71
-258.23
-179.87
-233.38
-310.98
-288.66
-309.59
-350.69
-295.53
-263.97
-242.36
-192.73
-173.94
-171.14
-190.78
-175.19
-143.02
-184.63
-227.58
-227.08
-41.44
268.22
75.35
-376.16
-325.92
-214.66
-312.63
-268.05
-194.39
-162.5
-119.86
-170.2
-236.48
-231.37
-228.2
-186.45
-165.37
-231.84
-212.41
-143.2
-108.72
-65.07
-17.7
22.79
9.74
52.18
132.04
86.31
81.89
149.5
120.99
27.2
202.65
563.42
241.77
-218.71
73.15
159.2
-5.23
142.7
101
28.77
157.89
110.97
4.37
27.78
16.97
-32.13
3.21
79.62
61.3
11.79
53.2
45.29
11.51
93.11
111.61
81.18
132.54
130.59
83.84
89.92
117.09
127.66
81.21
194.59
553.2
435.69
-56.63
-28.11
116.63
27.58
16.93
10.73
59.63
121.58
74.78
40.31
-7.77
-27.95
64.52
116.96
97.84
127.76
189.28
190.03
131.64
112.52
98.95
55.57
98.72
118.99
57.06
111.26
172.87
113.71
101.84
126.88
31.62
119.89
533.41
387.54
-146.31
-50.25
45.04
-96
37.18
27.07
-38.37
103.46
38.79
-135.68
-85.27
-13.26
-79.85
-126.63
-171.95
-383.8
-582.42
-564.92
-516.64
-509.2
-442.08
-371.95
-329.41
-254.72
-128.78
-12.64
-22.18
-81.03
25.29
97.33
141.44
481.14
471.37
3.74
-5.57
152.81
81.35
112.94
173.86
183.27
188.13
132.04
71.17
57.16
44.13
60.82
90.9
32.61
16.64
65.22
29.09
16.13
15.4
-45.33
-24.13
30.18
23.2
57.84
120.53
64.22
-20.07
-33.51
147.33
518.41
256.16
-332.8
-208.18
-85.03
-160.91
-22.75
-44.68
-48.43
18.43
-79.23
-115.25
-102.28
-142.72
-146.57
-176.25
-227.76
-195.41
-168.54
-176.32
-132.35
-129.12
-176.13
-136.64
-72.55
-89.63
-107.59
-72.88
-85.04
-127.91
-118.64
-111.72
-132.12
-176.79
0.74
347.42
26.08
-452.46
-174.17
-64.04
-237.94
-492.9
-1429.25
-1910.01
-1482.49
-1392.86
-1338.06
-956.7
-700.43
-430.07
-193.05
-29.38
232.71
382.96
428.13
557.69
703.94
808.48
863.3
938.53
1031.27
1015.34
988.84
993.7
960.86
883.3
933.87
1166.17
855.59
354.34
528.34
559.22
472.91
673.44
551
379.28
389.08
348.44
349.34
310.27
246.48
249.98
219.53
185.52
181.27
167.73
135.61
80.25
43.89
37.19
24.84
1.2
-12.23
-74.41
0.89
259.52
47.34
-288.61
-63.78
-5.9
-129.87
15.59
0.04
-96.97
-47.33
-56.35
-83.67
-41.17
-12.69
-27.24
-38.25
-50.28
-87.55
-109.81
-125.84
-179.98
-190.98
-145.91
-167.6
-225.52
-243.96
-127.9
72.05
-125.31
-486.12
-407.06
-334.75
-415.08
-322.89
-278.73
-311
-311.7
-310.19
-265.27
-239.77
-234.11
-210.41
-208.28
-201.3
-190.33
-195.69
-175.09
-142.27
-135.47
-166.7
-186.02
-132.33
-98.33
-137.16
-139.92
-25.05
62.69
-106.8
-259.5
-153.91
-108.7
-96.05
-3.31
-23.58
-76.2
-49.78
-16.08
-23
-65.78
-75.2
-39.66
-62.51
-103.88
-78.67
-66.37
-69.52
-43.07
-37.84
-41.94
-23.68
-17.75
-7.42
-80.78
-20.45
352.74
187.17
-283.39
-96.14
33.14
-38.55
89.9
66.36
39.72
48.81
45.95
148.37
115.5
21.69
27.63
51.95
42.52
-25.51
-50.99
-65.45
-96.6
-34.35
-4.25
-45.47
-3.63
25.16
-33.34
-5.98
60.37
-35.31
-61.92
230.51
256.02
-32.1
196.48
228.12
-376.72
-289.41
190.43
76.6
-115.39
-94.17
-36.3
-60.25
-115.21
-8.31
6.58
-79.32
-0.79
52.75
14
-12.78
-46.79
-40.14
-11.08
-3.57
4.31
-10.47
-8.21
-3.74
-43.6
-76.93
-126.33
-146.22
-106.39
-103
-133.61
74.2
511.28
253.04
-363.24
-158.15
54.92
-74.07
30.17
-0.82
-86.73
8.04
35.52
0.95
-37.47
-41.39
9.55
17.26
41.57
73.64
18.31
34.27
88.9
47.95
63.48
117.19
114.81
136.39
126.23
69.2
54.44
38.17
51.7
96.19
65.27
48.39
68.8
-17.47
-227.59
-193.86
139.62
-133.8
-664.22
-429.2
-246.59
-372.3
-206.13
-68.97
-23.87
69.91
63.61
16.14
-19.44
-28.34
52.95
123.17