-111.86
-203.39
-127.56
-110.83
-137.86
-156.53
-196.25
-162.1
-176.74
-288.5
-331.96
-301.9
-288.46
-279.09
-254.98
-239.91
-230.23
-205.84
-154.27
-77.08
-16.3
-24.91
-105.84
-182.69
-210.7
-250.06
-151.27
73
-112.27
-399.7
-237.72
-159.64
-179.69
-24.73
-30.95
-127.53
-150.45
-196.61
-254.25
-294.91
-295.61
-284.86
-300.14
-298.69
-270.58
-224.08
-171.81
-182.44
-255.23
-290.5
-259.42
-212.52
-163.11
-112.28
-89.34
-82.55
-47.81
6.05
9.88
42.88
184.99
95.3
-204.52
-202.28
-87.22
-121.02
-92.36
-46.44
-15.84
88.68
146.67
65.73
-63.98
-118.7
-99.06
-82.98
-86.65
-87.95
-63.41
-8.3
55.27
119.86
175.4
172.04
86.88
21.02
41.14
57.11
41.75
47.14
62.65
78.09
83.18
181.62
434.09
361.52
-55.16
-107.69
34.1
8.44
61.75
129.52
144.68
207.96
232.17
220.02
209.22
148.48
50.55
-6.06
7.41
24.86
24.47
42.07
60.56
62.16
68.19
116.82
202.96
223.84
139.19
60.54
47.85
50.61
45.54
30.79
6.55
-13.74
-50.89
-62.05
130.29
347.66
151.46
-124.13
-88.94
-101.61
-153.72
-79.51
-72.89
-72.36
-31.79
-77.71
-146.72
-146.58
-86.36
-30.71
-52.6
-131.55
-174.17
-162.37
-153.95
-136.58
-98.46
-69.25
-26.05
14.6
12.48
9.89
43.59
103.63
157.72
141.44
54.13
7.18
27.61
26.14
13.18
27.96
33.7
27.8
-3
90.28
360.74
279.86
2.59
137.06
214.15
42.39
-41.14
-124.32
-145.35
-75.9
-44.96
-29.82
-46.2
-77.49
-58.4
-27.62
-27.17
-15.45
44.06
125.16
188.16
204.84
148.09
68.31
69.24
124.87
144.11
149.15
152
123.46
99.37
94.68
81.52
65.05
53.85
39.33
31.57
58.92
92.98
74.83
9.48
-76.14
-137.85
-160.56
-203.99
-65.46
231.23
53.18
-295.04
-175.5
-110.86
-195.37
-125.66
-126.44
-144.13
-91.39
-74.58
-51.05
-47.18
-113.86
-178.95
-194.46
-173.79
-148.41
-139.17
-131.51
-107.91
-69.45
-38.66
-21.18
3.73
16.67
3.6
-2.72
-2.92
13.38
69.12
90.01
24.95
-53.39
-78.22
-49.29
-18.62
-19.02
-6.64
18.25
-4.34
-33.75
106.17
277.87
66.66
-169.85
-40.04
-4.4
-70.94
-1.67
18.29
43.1
143.93
192.76
158.79
69.87
-3.42
-14.57
-20.75
-46.3
-59.34
-64.34
-81.96
-107.7
-120.13
-119.75
-110.06
-95.98
-84.1
-56.9
-40.92
-56.22
-47.45
-15.81
-1.26
7.27
17.63
26.79
45
63.84
60.04
43.27
35.29
-2.06
28.79
225.3
198.7
-69.27
-58.63
44.84
14.07
47.13
64.29
48.08
78.9
92.83
73.95
26.87
-10.83
-0.31
-0.25
-20.93
-21.96
-23.21
-34.42
-39.39
-41
-45.3
-46.24
-43.38
-47.55
-55.37
-55.75
-54.08
-56.92
-43.17
-15.89
-13.63
-25.15
-20.43
-19.79
-33.65
-45.73
-47.8
-59.55
-100.29
14.8
238.46
79.74
-134.53
45.33
64.02
-90.19
-105.68
-156.55
-172.62
-140.28
-162.21
-180.87
-205.82
-217.67
-189.41
-164.31
-133.83
-85.6
-53.72
-41.91
-22.55
9.46
40.87
60.4
73.52
100.86
132.61
154.43
182.99
220.14
258.21
283.15
278.68
267.87
270.36
284.62
311.19
325.55
305.7
278.53
270.45
259.84
207.52
170.32
319.45
438.08
168.69
-25.48
117.29
117.79
56.21
104.51
69.57
-7.99
-155.59
-353.3
-420.55
-457.03
-504.77
-453.55
-388.76
-360.95
-313.93
-266.36
-224.27
-171.34
-125.54
-88.29
-33.43
44.17
112.27
161.27
205.98
235.48
252.27
266.33
274.71
283.76
297.71
307.71
297.84
272.7
251.62
199.54
196.06
367.02
363.52
76.61
1.83
14.7
-117.43
-122.74
-88.12
-111.6
-54.82
-11.83
-33.14
-54.02
-66.23
-42.42
-14.53
-28.15
-56.75
-89.53
-111.88
-115.99
-115.95
-76.83
-11.16
14.53
7.48
2.05
-3.02
-18.25
-30.18
-28.86
-27.3
-23.5
-3.52
33.85
61.49
40.32
80.02
285.42
324.52
88.41
48.47
159.5
133.08
126.33
139.62
108.08
111.81
101.41
35.14
-45.91
-94.39
-106.15
-140.37
-170.61
-175.41
-207.77
-232.13
-240.9
-272.09
-284.77
-279.78
-294.22
-300.19
-285.88
-277.64
-276.62
-267.97
-241.81
-203.48
-175.77
-159.45
-150.34
-181.33
-199.1
-39.41
83.03
-142.39
-291.96
-160.28
-146.98
-171.34
-115.38
-114.16
-81.39
-63.69
-147.03
-188.95
-156.72
-120.49
-88.37
-80.06
-87.1
-80.2
-72.64
-79.16
-86.52
-75.94
-63
-55.78
-41.9
-28.51
-26.35
-22.47
-2.39
10.05
11.75
41.42
72
66.45
52.97
43.71
47.1
56.64
11.72
33.39
280.13
336.53
29.91
-23.95
106.24
27.89
23.01
93.95
80.25
105.75
143.71
148.11
133.59
78.25
28.41
16.74
12.29
7.66
6.86
-3.43
-15.77
-19.12
-18.64
-10.66
-0.07
3.31
16.63
41.2
45.52
27.97
18.24
16.44
18.16
33.58
65.7
103.16
113.6
98.52
98.42
105.26
66.65
6.48
150.94
375.58
164.73
-80.73
74.25
97
38.01
127.86
127.94
135.17
184.2
183.42
180.3
133.12
87.51
117.95
129.98
98.22
91.98
94.06
87.79
90.09
88.28
92.7
113.48
125.05
124.82
102.02
63.08
70.84
96.9
85.91
82.84
90.01
87.73
93.46
116.26
162.31
163.39
107.84
88.03
74.53
0.5
-106.64
-12.19
235.98
39.82
-281.16
-149.15
-105.04
-188.7
-101.66
-90.7
-101.64
-57.06
-75.53
-126.61
-181.15
-209.04
-193.52
-178.93
-166.75
-146.69
-122.17
-85.04
-67.55
-71.35
-50.54
-24.34
-9.36
11.33
19.63
16.51
13.19
-0.33
-7.09
-0.22
6.52
10.13
11.16
27.17
49.36
61.6
89.07
118.46
124.72
96.29
185.84
424.32
289.54
-2.63
146.22
211.91
101.74
168.58
152.55
109.23
152.16
121.93
55.19
8.18
-17.94
-24.82
-38.54
-42.48
-27.57
-2.18
19.74
15.23
12.8
22.4
12.8
-11.36
-42.82
-93.9
-171.71
-245.7
-257.12
-215.18
-214.89
-256.47
-255.61
-241.84
-247.2
-233.3
-215.5
-208.66
-197.81
-187.06
-183.87
-211.91
-157.75
52.72
21.92
-227.05
-180.17
-67.83
-100.05
-38.35
35.95
59.08
84.48
78.1
32.29
-49.92
-106.3
-106.05
-117.98
-146.12
-163.63
-181.96
-201.84
-210.95
-205.77
-209.55
-223.13
-227.3
-230.02
-231.78
-228.62
-219.87
-190.15
-155.87
-162.14
-168.94
-140.26
-143.02
-160.4
-158.1
-166.74
-193.12
-94.37
159.07
42.62
-278.66
-154.44
-60.72
-152.73
-59.91
-30.56
-59.49
-6.59
-4.18
-47.81
-91.84
-104.48
-76.82
-58.13
-52.26
-52.96
-48.38
-8.34
49.2
89.61
118.46
138.94
129.94
125.53
162.12
191.43
204.31
224.56
233.8
242.47
267.06
276.03
266.41
267.55
273.73
277.14
246.56
259.16
452.36
469.11
156.77
91.72
184.08
57.09
39.97
127.89
107.31
140.56
195.36
180.98
164.27
151.27
152.42
166.95
169.84
170.84
164.7
160.83
171.19
168.98
154.45
152.62
159.72
161.58
165.31
171.61
166.69
157.75
150.14
135.83
113.19
86.17
77.34
91.89
93.36
79.5
76.59
76.44
53.23
2.2
135.12
383.45
169.09
-138.07
14.41
49.74
-35.87
55.41
35.18
2.81
56.3
48.49
23.3
-17.93
-57.36
-47.27
-53.59
-74.76
-73.73
-74.17
-94.55
-124.75
-127.04
-122.96
-139.64
-134.4
-118.94
-120.69
-122.83
-126.1
-123.49
-117.59
-118.48
-105.29
-96.27
-124.36
-158.1
-152.85
-126.6
-174.27
-199.43
-20.74
20.34
-221.87
-249.86
-128.42
-152.69
-125.41
-50.07
-13.61
63.91
123.68
113.74
70.17
35.88
47.71
67.79
65.2
54.37
43.46
49.22
62.85
55.67
31.6
4.22
-19.91
-32.31
-41.46
-48.66
-39.94
-33.11
-24.89
7.43
20.4
16.86
56.37
94.35
64.55
159.53
408.61
259.23
-93.23
-9.74
55.69
-40.16
40.58
65.02
41.71
90.55
84.18
32.87
-23.49
-50.52
-32.52
-28.33
-36.7
-46.14
-63.87
-67.48
-62.48
-55.53
-32.18
-18
-45.33
-73.61
-61.56
-53.45
-66.22
-46.2
-19.52
-46.59
-83.37
-90.4
-97.99
-126.38
-10.15
248.64
104.89
-213.21
-96.43
-48.54
-160.52
-102.78
-138.08
-197.12
-153.16
-158.2
-190.79
-218.14
-225.84
-182.76
-148.12
-75.54
172.21
532.18
856.76
1008.92
919.59
735.6
502.13
169.5
-144.94
-444.61
-894.84
-1371.77
-1574.06
-1583.05
-1554.38
-1469.52
-1264.08
-899.73
-770.71
-804.38
-530.91
-335.78
-300.62
-121.94
-50.05
-80
-14.07
53.12
72.76
89.98
110.57
109.95
111.77
151.24
190.12
218.14
240.5
245.28
251.82
255.33
255.87
248.98
280.81
399.12
352.44
209.17
292.48
333.28
286.36
366.38
407.42
398.17
417.34
418.41
415.67
412.48
394.61
378.81
387.33
393.19
372.94
359.09
344.78
328.02
320.63
280.91
210.03
278.59
427.95
212.7
-63.59
63.86
99.11
32.14
151.66
162.58
92.69
96.55
103.05
125.59
157.39
165.73
164.83
172.32
171.32
137.23
90.2
53.25
25.21
17.94
23.3
9.78
53.27
139.9
45.81
-115.78
-87
-65.96
-121.52
-93.96
-97.36
-159.13
-153.39
-112.41
-82.13
-31.63
12.2
19.18
17.78
8.63
9.41
13.17
-14.66
3.8
65.41
62.82
42.98
47.5
13.39
122.93
551.56
859.76
876.59
950.31
921.29
771.23
720.78
588.08
383.26
266.08
181.93
80.02
3.48
-8.88
2.76
-24.56
-63.61
-84.14
-116.97
-156.61
-198.41
-246.28
-292.09
-334.11
-366.14
-395.06
-419.2
-437.38
-438.42
-446.92
-449
-316
-262.28
-478.44
-558.72
-460.63
-504.09
-528.94
-464.97
-472.41
-492.94
-517.25
-576.53
-581.81
-547.16
-542.78
-549.19
-538.84
-518.87
-509.19
-500.16
-460.94
-417.69
-399.25
-361.41
-312.78
-307.41
-261.16
-174.16
-188.41
-214.28
-161.8
-154.94
-170.36
-147.37
-77.5
47.36
-21.67
-204.87
-166.25
-126.48
-153.66
-102.97
-74.67
-32.61
-16.81
-83.57
-79.25
-50.22
-103.7
-154.12
-178.98
-201.01
-180.49
-146.5
-146.81
-135.03
-94.63
-80.68
-80.45
-49.92
-29.44
-43.32
-29.67
16.25
53.29
120.59
199.3
163.15
230.08
497.59
325
-3.54
210.38
299.37
184.75
310.92
345.52
314
327.87
267.78
263.14
310.94
308.14
293.7
294.59
297.03
279.5
256.61
268.25
280.5
279.09
297.53
292.69
245.27
230.31
247.27
223.48
200.52
216.34
200
154.83
109.67
204.05
422.52
229.09
-68.33
126.41
186.89
72.12
177.72
202.47
198.61
237.2
172.92
146.75
182.47
176.66
148.09
116.97
98.62
98.05
89.92
80.66
74.5
67.42
79.94
102.92
115.89
116.05
102.64
84.66
73.97
90.42
117.27
100.8
65.8
64.44
62.3
1.17
72.45
303.58
125.16
-205.23
-58.75
18.27
-74.95
0.65
-11.68
-34.77
51.1
80.81
67.91
36.72
1.84
9.36
20.49
17.15
28.35
43.34
45.5
34.1
16.89
7.25
-3.96
-21.72
-26.37
-25.17
-40.97
-57.7
-56.33
-43.95
-31.27
-19.57
-8.32
-33.28
-82.5
-85.49
-99.86
-14.16
203.44
18.3
-289.36
-142.52
-115.11
-221.9
-129.54
-146.09
-169.73
-99.82
-117.42
-161.62
-184.12
-187.59
-142.12
-99.42
-89.72
-81.14
-80.93
-88.91
-87.2
-83.2
-68.98
-51.49
-42.55
-12.24
7.75
-12.65
-18.9
-17.02
-37.91
-56.64
-68.23
-79.05
-92.63
-105.14
-108.09
-149.67
-82.12
173.2
62.84
-295.73
-220.83
-125.21
-199.82
-117.14
-85.45
-88.56
-16.8
12.11
26.22
3.05
-65.2
-83.1
-70.37
-73.83
-77.69
-70.41
-51.23
-24.64
-1.28
9.13
12.85
12.74
-5.62
-28.14
-40.47
-49.79
-49.39
-45.73
-50.86
-49.6
-39.84
-35.24
-32.95
-42.44
-58.22
-60.41
-64.03
-79.04
-114.96
7.61
287.87
142.4
-157.66
23.3
141.07
97.53
213
230.41
222.6
273.04
231.86
159.56
105.02
78.95
79.82
59.13
33.29
26.42
23.66
26.18
22.89
-0.84
-26.89
-48.42
-69.51
-96.41
-128.75
-147.39
-159.09
-173.21
-174.22
-161.34
-162.86
-193.49
-212.67
-202.11
-225.12
-213.06
-5.09
91.21
-175.12
-279.06
-114.36
-117.7
-142.66
-61.3
-43.69
-30.63
8.69
6.77
-17.37
-18.54
4.57
6.74
2.37
12.83
8.33
7.41
16.51
-12.83
-68.86
-98.28
-118.34
-144.94
-126.45
-82.23
-48.04
4.78
49.35
53.3
53.64
77.44
107.49
122.41
126.21
135.37
171.77
218.63
203.7
159.94
327.15
530.75
266.42
35.16
261.01
313.41
246.89
336.96
317.13
294.47
351.8
368.33
360.56
295.46
217.16
209.95
217
215.77
202.94
161.72
146.67
138.32
93.29
71.55
90.68
99.14
87.37
76.27
74.09
70.65
48.98
29.69
30.99
21.5
10.18
18.31
1.28
-38.68
-55.61
-56.44
-64.96
-110.29
-171.69
-42.56
139.89
-97.93
-333.71
-172.07
-162.37
-256.01
-192.22
-184.52
-165.58
-118.41
-142.3
-167.41
-173.43
-151.98
-113.59
-107.84
-111.65
-108.06
-114.48
-112.7
-111.88
-132.25
-138.41
-130.87
-137.38
-142.19
-150.31
-159.45
-144.55
-135.09
-148.98
-204.27
-364.63
-592.24
-781.67
-865.04
-831.79
-758.39
-691.91
-505.99
-184.52
-144.5
-336.4
-239.96
-69.2
-20.87
96.32
184.73
259.85
372.65
384.83
330.53
320.81
335.31
335.09
339.15
341.43
317.2
293.22
288.52
281.73
274.38
268
249.83
233.09
226.02
225.19
226.49
209.62
187.18
188.55
202.29
217.13
241.8
250.86
212.09
166.17
147.51
93.11
168.18
398.73
188.67
-141.04
84.56
207.11
100.45
154.75
125.18
106.59
159.78
96.86
28.08
20.57
25.69
28.7
19.89
8.73
-16.48
-39.44
-31.95
-27.84
-46.28
-73.09
-96.1
-110.62
-114.54
-106.07
-114.45
-134.84
-131
-116.92
-96.77
-59.45
-39.29
-41.48
-33.61
-40.62
-5.22
131.77
95.33
-116.73
-115.95
-39.87
-75.21
-66.32
-65.31
-81.79
-46.15
-57.9
-125.39
-155.29
-134.52
-111.3
-99.21
-88.28
-102.5
-126.64
-107
-56.66
-18.48
-9.51
-11.7
-8.1
-12.56
-29.43
-54.71
-82.73
-93.17
-75.6
-41.82
-22.4
-19.33
-14.3
-50.12
-22.48
142.16
22.6
-307.72
-278.61
-188.37
-249.71
-195.25
-180.94
-208.03
-157.23
-182.8
-241.76
-229.21
-213
-203.97
-186.48
-171.95
-143.59
-117.92
-109.66
-95.99
-78.77
-62.58
-44.15
-31.04
-26.16
-27.1
-22.51
-9.5
0.03
17.63
40.63
44.17
24.37
-2.57
3
38.71
42.97
32.38
46.46
54.75
51.6
26.98
85.05
346.47
373.74
57.01
39.22
196.5
169.19
213.77
303.14
332.13
382.61
391.15
380.03
377.88
318.54
268.37
261.47
229.55
183.58
150.36
117.17
84.55
69.23
57.91
28.02
19.17
42.73
50.31
47.47
53.41
57.45
46.63
0.73
-62.8
-95.59
-99.21
-112.94
-137.59
-144.94
-134.06
-122.3
-120.44
-126.78
-123.93
-105.8
-104.45
-157.31
-52.07
232.96
95.97
-233
-117.61
-47.57
-125.08
-44.3
-31.01
-12.46
95.76
142.87
134.74
82.94
27.07
13.98
4.88
-8.3
-21.23
-46.64
-61.55
-50.89
-44.15
-56.26
-51.85
-31.75
-32
-39.73
-42.54
-58.52
-68.16
-54.32
-38.47
-16.38
8.54
14.49
7.57
-5.98
-14.02
-28.14
-44.23
74.26
180.71
-33.71
-183.05
-29.47
28.99
64.82
191.19
224.05
266.4
326.03
273.33
187.95
145.57
126.4
117.01
107.22
96.55
82.27
61.21
49.01
41.76
23.62
0.06
-14.81
-23.38
-40.03
-66.85
-92.61
-106.58
-96.96
-87.72
-119.6
-157.3
-156.44
-153.5
-200.01
-110.53
150.84
13.18
-296.14
-143.69
-65.27
-153.55
-50.81
-31.47
-49.99
14.63
29.02
11.11
-51.46
-119.57
-108.56
-94.7
-87.54
-46.45
-37.87
-46.67
-22.03
-18.09
-38.71
-34.67
-34.43
-57.18
-69.96
-81.46
-93.93
-95.11
-111.96
-123.68
-99.09
-82.15
-88.49
-97.9
-103.06
-99.32
-101.84
-150.49
-72.13
213.05
142.7
-176.9
-76.61
28.08
-52.97
21.8
43.64
25.29
98.02
146.31
178.1
169.93
125.05
114.45
105.22
95.61
96.36
85.29
85.87
88.89
76.55
71.39
67.78
64.45
72.39
72.64
56.84
46.05
65.43
103.91
120.59
116.64
126.18
143.47
140.34
119.18
96.84
69.12
31.12
-31.67
53.49
305.76
149.07
-198.5
-76.38
-0.78
-115.1
-60.43
-67.77
-93.67
-38.02
-40.65
-46.96
-65.11
-119.38
-118.31
-91.93
-94.99
-89.93
-81.16
-92.75
-103.32
-100.38
-98.42
-101.94
-96.84
-81.76
-68.67
-55.54
-44.62
-32.37
-9.34
6.52
17.07
35.41
50.13
64.79
74.39
81.75
99.18
65.22
59.1
266.57
337.94
15.76
-116.09
14.11
-21.4
-26.98
37.07
16.13
48.33
82.38
45
3.79
-36.39
-29.04
1.19
-5.16
15.12
50.51
49.95
45.36
34.34
12.5
5.32
12.27
17.82
8.02
7.89
36.01
52.08
52.56
55.5
41.1
8.19
-16.35
-23.41
-27.33
-38.9
-56.99
-74.44
-71.52
-44.36
-50.18
-101.87
53.49
303.63
57.1
-232.3
-37.85
-13.04
-124.19
-36.92
-58.27
-85.43
-27.52
-31.44
-33.52
-69.79
-147.32
-148.3
-123.43
-128.19
-111.03
-80.12
-62
-49.93
-49.81
-55.16
-51.13
-41.64
-32.3
-27.62
-27.5
-16.63
9.55
37.49
63.87
81.21
84.92
81.01
68.12
53.94
47.23
41.13
29.36
13.8
19.27
43.88
50.74
56.45
76.76
78.64
35.43
63.02
301.3
356.88
31.2
-73.36
50.11
9.21
-2.92
37.43
22.49
54.08
71.28
53.86
60.49
26.45
-25.96
-34.86
-38.57
-44.69
-44.92
-53.86
-73.1
-87.93
-95.18
-128.97
-176.55
-186.37
-170.64
-161.1
-148.63
-131.31
-120.49
-102.04
-73.63
-56.95
-47.31
-35.07
-25.29
-25.42
-32.54
-26.5
-18.31
-26.77
-25.3
-5.58
9.01
7.32
2.66
9.58
14.37
15.56
-6.79
51.04
305.25
315.22
4.05
11.5
176.06
152.39
189.08
239.71
213.48
210.11
207.17
198.91
180.43
119.94
55.51
35.01
42.88
37.33
21.35
22.92
29.69
20.06
6.1
3.15
4.51
0.09
0.5
4.4
5.23
1.04
-11.08
-11.96
6.69
22.98
18.95
-1.27
-19.36
-42.09
-63.61
-61.44
-55.27
-70.19
-98.78
-116.26
-119.09
-146.05
-200.4
-54.36
221.22
18.7
-311.25
-176.54
-134
-218.18
-136.63
-157.79
-179.95
-107.58
-82.51
-77.61
-104
-138.58
-126.17
-117.67
-107.5
-72.46
-50.28
-46.49
-39.99
-38.34
-54.7
-62.96
-63.03
-65.81
-56.99
-56.05
-55.35
-38.88
-33.94
-45.32
-51.46
-39.71
-30.64
-32.74
-13.52
8.35
11.79
29.67
42.18
25.69
-16.76
59.6
312.23
209.15
-153.87
-102.19
-21.91
-111.65
-38.11
-3.19
-6.68
86.15
139.68
142.85
128.13
108.85
134.87
164.06
156.35
163.94
188.03
189.3
187.67
191.46
180.05
172.75
165.73
131.49
90.06
57.6
29.23
5.12
-3.29
4.21
-6.68
-29.86
-29.58
-19.04
-17.94
-20.6
-22.95
-34.73
-52.02
-60.71
-69.68
-109.45
-5.65
247.2
62.11
-272.02
-100.41
-22.74
-121.26
-22.1
-18.8
-38.3
21.59
12.09
-4.24
-40.51
-78.82
-58.61
-55.49
-53.64
-30.3
-44.63
-61.66
-51.82
-55.4
-61.62
-53.68
-46.11
-30.9
-3.96
20.97
27.42
24.97
35.31
49.69
71
97.88
104.68
115.79
146.37
154.52
167.43
207.99
202.15
155.29
293.72
510.1
260.33
-48.64
118.25
151.17
28.63
77.62
40.9
6.84
50.42
19.15
-35.29
-87.69
-123.54
-117.88
-125.76
-140.66
-140.44
-149.39
-161.57
-172.42
-187.96
-198.59
-194.89
-178.14
-163.59
-161.97
-159.77
-147.52
-138.15
-131.63
-123.89
-125.48
-128.95
-136.28
-150.39
-141.13
-150.21
-144.52
46.15
175.44
-48.08
-169.84
-39.94
-49.73
-69.04
-8.45
-28.75
-20.4
19.31
9.51
-15.87
-55.75
-75.35
-53.53
-49.34
-53.69
-31.43
70.68
304.81
449.33
382.1
341.14
329.99
245.34
189.89
162.12
116.02
80.96
58.52
44.22
37.41
17.7
-9.9
-33.22
-59.32
-109.9
-89.2
100.16
91.63
-199.79
-258.33
-179.36
-217.01
-204.32
-193.24
-213.25
-184.74
-153.66
-142.82
-176.34
-217.62
-195.98
-161.38
-144.83
-121.25
-98.55
-75.46
-54.75
-42.66
-14.01
13.1
20.44
29.63
24.63
8.96
8.57
12.7
21.48
35.33
46.4
58.23
67.81
75.41
75.06
55.43
45.88
40.49
-6.08
-66.52
76.23
335.23
126.14
-192.59
-47.18
-18.48
-107.07
12.34
28.48
14.3
89.38
118.48
132.46
120.1
62.64
21.98
-11.18
-36.45
-25.73
-13.2
-5.38
18.03
38.24
57.8
89.45
109.7
114.24
124.63
142.25
165.19
193.34
209.84
213.41
219.01
224.88
217.23
203.86
203.85
209.97
205.09
152.41
129.65
318.73
422.29
132.63
-7.9
137.48
99.54
52.24
93.81
46.78
59.87
112.66
95.89
71.88
26.52
-13.75
19.01
72.13
101.96
115.15
108.78
90.96
66.66
52.29
47.4
17.07
-16.94
-25.05
-40.24
-60.12
-59.34
-61.28
-71.4
-66.78
-44.96
-31.27
-46.57
-65.8
-65.63
-66.92
-124.89
-61.44
207.35
96.43
-274.95
-214.39
-133.6
-226.25
-164.75
-144.06
-164.67
-106.05
-73.2
-67.2
-86
-110.15
-65.77
-17.94
-18.75
-10.53
-7.46
-24.45
-26.35
-36.45
-58.83
-53.51
-26.24
0.27
8.77
-3.88
-7.55
-7.64
-19.97
-17.56
-19.69
-46.51
-54.54
-71.89
-154.12
-233.95
-126.37
36.76
-196.72
-452.41
-299.5
-267.28
-337.25
-243.94
-232.24
-224.87
-149.23
-119.95
-130.37
-166.03
-161.91
-122.77
-107.78
-87.77
-72.82
-71.61
-67.38
-74.94
-74.8
-61.63
-53.16
-30.32
-7.89
-2.63
8.03
10.98
13.63
33.47
43.15
49.38
61.21
65.78
59.47
44
39.03
30.89
-34.62
47.63
288.54
91.73
-229.68
-64.87
-15.13
-114.07
-12.57
-5.73
-10.02
55.03
41.82
23.83
-1.84
-21.52
16.44
39.67
47.43
66.52
54.96
35.58
32.04
22.06
19.24
23.22
15.86
13.87
29.67
46.14
58.28
79.65
100.32
119.04
135.57
134.96
136.53
139.73
125.54
109.78
98.25
81.87
49.76
95.22
323.51
404.04
133.54
26.57
148.1
110.24
69.03
93.3
55.56
58.49
85.34
52.62
-21.27
-83.24
-75.24
-45.6
-40.49
-22.2
-3.98
-1.12
5.7
5.38
-4.68
-4.8
-8.17
-35.47
-56.47
-46.8
-40.78
-46.1
-40.04
-46.07
-71.46
-82.82
-76.16
-74.33
-82.24
-87.46
-86.01
-79.04
-60.9
-75.82
-27.9
202.87
197.16
-114.81
-141.32
-35.75
-82.39
-43.6
2.48
-12.81
26.7
58.95
71.3
65.87
2
-27.66
0.26
4.64
5.45
12.98
-0.89
-7.24
-3.97
-12.26
-22.14
-30.56
-37.81
-24.14
10.78
39.54
52.22
53.39
51
53.62
63.41
73.47
73.8
59.08
46.84
50.31
53.18
66.22
98.46
114.54
121.99
141.72
144.24
118.13
68.93
186.36
433.47
203.38
-167.24
-31.75
6.44
-109.58
-25.6
-47.94
-96.58
-50.98
-64.97
-77.4
-91.05
-147.13
-159.56
-122.91
-83.37
-44.53
-23.64
-20.88
-19.16
-17.21
-15.29
-15.89
-10.97
-15.14
-29.47
-18.76
-4.24
-5.99
3.79
9.14
-14.12
-41.93
-48.44
-36.8
-20.1
-5.21
5.66
25.56
66.33
106.03
132.42
146.73
145.67
141.04
108.41
45.58
184.91
415.74
148.2
-188.64
-38.74
-21.14
-131.37
94.57
488.93
786.03
879.03
921.23
935.79
826
697.76
577.5
463.65
365.66
261.05
160.49
64.23
-12.74
-86.02
-178.84
-249.81
-301.03
-344.84
-382.36
-452.17
-528.89
-577.08
-588.23
-525.56
-387.25
-288.56
-287.8
-236.37
-175.27
-65.2
159.81
-64.25
-417.06
-245.44
-239.66
-393.08
-299.36
-330.47
-369.55
-350.66
-473.88
-512.75
-462.53
-508.75
-507.02
-285.75
102.27
349.89
309.11
280.42
389.59
409.95
273.42
116.55
-11.92
-137.23
-235.33
-313.92
-373.08
-442.64
-440.86
-321.59
-528.12
-866.91
-799.52
-793.89
-919.37
-869.91
-846.83
-824.66
-816.38
-840.25
-730.14
-628.41
-609.7
-527.2
-443.95
-430.73
-387.74
-302.57
-236.32
-163.92
-86.29
-64.56
-60.46
-12.15
29.01
40.12
58.25
65.75
16.56
77.3
292.09
160.13
-73.67
164.48
298.52
218.61
321.31
345.88
266.77
226.47
172.3
153.55
164.78
165.72
177.8
181.5
204.81
276.03
327.72
355.5
408.75
458.53
467.81
493.13
535.37
521.78
501.09
516.5
530.28
586.97
634.72
516.91
404.25
470.97
474.41
356.94
317.25
309.59
243.66
177.03
154.06
144.69
128.16
143.34
183.41
193.87
183.25
162.94
59.19
-129.66
-214.84
-106.28
30.53
80.75
130.5
297.19
452.06
372.69
407.62
678.88
420.84
-28.34
139.22
216.03
27
125.53
251.12
277.94
329.06
296.03
219.16
192.13
159.97
123.09
132.31
138.03
131.56
201.12
362.75
552.84
699.75
681.19
551.56
524.28
491.44
334.62
194.34
92.59
16.95
138.48
355.12
114.95
-231
-57.53
21.95
-87.34
14.75
78.89
155.53
258.87
186.1
114.09
126.61
114.82
75.68
3.98
-57.37
-75.28
-109.04
-98.36
-43.56
-65.52
-127.77
-174.27
-218.03
-229.08
-198.52
-186.92
-228.67
-267.48
-280.9
-306.89
-386.69
-348.24
-118.3
-247.12
-557.37
-392.91
-259.3
-321.3
-219.17
-171.59
-167.3
-101.98
-103.34
-123.36
-102.67
-98.8
-111.45
-99.3
-85.8
-95
-141.72
-219.97
-264.86
-260.73
-240.52
-220.28
-215.05
-225.02
-245.92
-269.02
-249.5
-254.45
-191.16
41.31
-119.62
-496.94
-391.84
-321.47
-403.72
-281.41
-245.5
-254.09
-204.13
-249.22
-293.06
-274.91
-269.91
-274.56
-258.48
-216.8
-182.25
-187.23
-184.52
-132.23
-70.61
-37.61
-24.2
-13.28
7.45
41.27
58.94
3.72
23.56