304.68
280.55
293.8
297.51
208.45
220.39
168.73
196.98
176.15
140.79
150.61
120.89
80.29
78.28
81.15
61.56
107.22
52.03
60.06
45.19
-29.29
-54.61
-61.72
-35.31
-7.66
-91.18
-111.92
-56.73
-143.95
-78.52
-103.86
-106.01
-207.95
-186.83
-222.19
-209.8
-240.08
-241.91
-217.32
-231.06
-253.52
-297.78
-323.34
-334.31
-324.56
-362.68
-369.87
-405.32
-341.94
-329.51
-346.96
-366.75
-436.75
-372.84
-390.25
-435.68
-395.92
-440.62
-438.1
-493.45
-510.25
-432.34
-449.61
-440.75
-436.86
-509.83
-449
-475.05
-535.22
-486.77
-506.95
-532.45
-458.27
-470.7
-546
-504.36
-482.33
-469.22
-488.09
-524.45
-522.23
-481.88
-483.87
1054.26
-433.93
-426.3
-430.6
-407.1
-474.75
-426.21
-482.1
-421.54
-463.97
-380.73
-414.77
-356.45
-374.72
-368.33
-383.91
-362.58
-383.18
-277.48
-362.83
-299.96
-247.65
-279.48
-294.09
-215.39
-256.42
-182.32
-189.49
-172.41
-184.2
-198.41
-132.49
-186.07
-135.66
-84.09
-53.62
-57.6
-70.83
-70.22
-7.6
-10.57
2.45
-36.18
16.26
-1.99
66.99
56.57
92.53
94.63
128.73
116.65
121.7
193.8
150.75
190.71
153.44
163.17
194.46
189.29
201.75
226.42
294.21
239.06
335.26
346.82
282.82
325.02
336.09
333.53
322.56
376.27
433.62
431.01
415.67
371.32
456.56
466.62
451.58
440.2
401.92
465.88
429.29
465.18
505.27
444.48
501.94
440.64
505.36
514.15
481.48
530.92
450.54
486.21
466.34
531.88
471.09
521.48
485.34
520.33
538
509.14
497.41
507.5
437.19
469.57
517.8
461.7
422.77
503.04
489.32
450.36
460.68
420.05
438.06
410.34
413.97
422.91
426.22
397.64
348.36
318.12
331.92
323.47
361.41
286.57
289.93
247.45
231.04
285.76
246.73
228.96
213.67
250.62
151.64
223.52
198.76
104.43
118.28
96.07
58.81
83.73
77.13
35.73
75.73
-11.35
-8.78
-2.62
2.11
6.78
-36.34
-105.27
-103.07
-54.67
-78.67
-121.61
-140.6
-169.79
-213.05
-147.94
-201.52
-252.45
-249.72
-258.16
-225.33
-295.39
-304.97
-292.38
1182.1
-269.54
-283.93
-324.95
-323.97
-318.86
-350.05
-355.1
-433.87
-384.26
-390
-452.47
-464.41
-476.03
-430
-464.84
-403.08
-458.75
-485.77
-482.59
-512.68
-513.67
-504.84
-499.96
-520
-537.72
-473.94
-504.53
-530.53
-546.57
-487.49
-469.28
-454.55
-468.61
-507.92
-499.2
-524.43
-510.11
-535.81
-437.9
-441.42
-442.79
-442.76
-426.61
-484.09
-410.95
-490.93
-454.64
-450.17
-378.04
-424.04
-406.02
-363.91
-344.99
-367.68
-414.27
-341.03
-331.92
-370.08
-362.43
-345.74
-349.49
-307.14
-247.74
-231.36
-251.25
-267.1
-236.82
-219.25
-252.67
-155.57
-141.71
-160.67
-111.27
-90.02
-110.94
-134.48
-68.61
-47.8
-65.09
-67.36
-50.7
27.76
-34.2
52.71
62.43
68.57
38.57
93.1
47.8
96.02
136.43
182.12
160.33
122.88
226.19
199.51
209.07
205.5
189.36
264.45
269.48
280.5
270.79
306.72
264.13
283.99
361.85
374.25
361.77
390.68
339.86
411.78
380.73
370.97
432.83
377.52
417.35
404.81
439.82
461.53
408.79
442.37
445.06
474.51
505.58
517.23
436.99
477.97
534.4
511.38
507.33
524.4
547.25
514.65
525.34
538.02
466.71
514.06
514.76
478.41
496.06
443.93
453.48
444.86
502.74
477.65
478.01
443.65
488.21
416.87
430.46
449.24
440.04
393.33
418.36
402.89
433.72
418.48
410.07
376.99
394.1
311.44
350.33
326.2
312.19
268.76
1806.12
319.78
273.65
211.48
262.65
191.6
161.19
150.91
207.86
154.44
140.7
87.32
127.85
91.06
48.7
107.55
41.83
50.28
80.4
33.78
-13.67
12.25
-23.93
-69.76
-76.77
-97.18
-44.63
-117.77
-89.78
-110.6
-99.35
-111.12
-188.12
-233.18
-222.77
-250.72
-267.45
-265.75
-295.12
-225.54
-314.51
-306.81
-316.53
-332.7
-371.11
-388.91
-301.75
-318.21
-334.92
-416.8
-402.8
-368.42
-370.59
-411.22
-382.05
-430.29
-403.68
-405.97
-476.39
-429.29
-427.66
-480.15
-524.91
-439.21
-530.22
-520
-520.91
-527.45
-515.92
-496.49
-459.28
-481.24
-545.68
-520.94
-472.9
-505.75
-508.73
-535.69
-454.28
-487.8
-456.53
-492.93
-450.89
-439.99
-459.78
-427.14
-502.09
-450.16
-445.29
-393.73
-426.93
-414.62
-420.74
-374.93
-368.86
-403.52
-347.95
-358.76
-337.2
-332.7
-372.44
-351.3
-289.01
-321.91
-315.59
-258.65
-258.08
-285.18
-210.27
-230.35
-199.72
-176.56
-170.99
-137.62
-176.74
-168.89
-138.13
-109.62
-136.32
-118.95
-54.77
-46.34
-63.44
9.5
26.85
29.66
44.1
89.69
39.12
68.17
134.49
66.19
133.31
95.47
189.42
144.96
140.03
229.03
216.41
214.44
215.28
199.21
284.85
258.11
287.49
263.48
259.52
327.58
292.32
364.77
393.72
310.16
320.84
426.51
436.38
383.54
431.99
415.35
410.87
460.9
415.33
473.19
438.07
485.58
510.44
519.13
446.88
523.76
437.63
440.27
532.7
450.72
488.7
461.85
465.41
506.61
478.27
486.96
544.65
472.52
508.66
486.08
479.78
485.14
480.3
513.51
519.51
478.46
496.77
506.54
468.13
408.15
468.02
453.12
456.26
423.86
413
364.39
386.6
349.94
399.39
322.88
365.69
321.87
349.1
287.12
289.4
270.45
243.29
260.19
289.73
206.09
236.84
258.35
261.5
247.31
180.75
123
145.27
148.66
103.07
111.34
138.3
104.75
113.96
30.89
1.46
49.52
-41.8
29.75
-11.52
-42.3
-101.06
-66.39
-44.58
-102.41
-142.29
-173.69
-92.63
-177.88
-173.07
-192.95
-196.75
-233.11
-208.71
-216.38
-225.61
-262.02
-266.5
-333.22
-277.68
-286.52
-281.29
-346.86
-312.45
-331.89
-345.48
-388.54
-404.76
-379.83
-438.67
-405.04
-395.96
-385.26
-405.64
-454.46
-487.92
-463.77
-419.64
-498.41
-493.54
-471.15
-518.91
-535.46
-458.39
-458
-484.67
-465.7
-462.12
-534.52
-462.63
-526.07
-522.31
-528.27
-529.49
-510.39
-468.31
-530.55
-455.44
-443.17
-434.44
-486.04
-502.75
-479.06
-496.41
-467.23
-405.69
-428.3
-479.14
-461.14
-440.21
-426.89
-358.49
-418.08
-369.14
-356.79
-321.86
-320.46
-299.62
-287.67
-307.91
-317.14
-283.06
-232.12
-273.11
-249.04
-280.71
-226.49
-186.6
-160.52
-148.64
-127.28
-136.46
-119.72
-115.83
-150.75
-138.82
-35.35
-24.45
-82.73
-4.76
19.45
-40.54
1495.6
10.72
66.97
1.27
67.09
125.99
84.51
60.04
158.27
110.03
195.68
147.75
157.81
218.27
221.38
208.55
247.2
235.7
238.83
237.98
337.13
255.94
344.29
303.57
340.48
326.27
314.69
384.48
366.3
427.38
374.38
401.53
449.04
378.54
399.39
405.18
451.08
438.79
502.33
489.24
481.66
448.02
504.89
499.02
492.18
536.64
442.98
517.32
504.18
543.66
547.43
532.29
464.81
526.3
485.45
490.63
468.11
520.64
476.7
460.11
439.4
450.37
498.07
430.18
499.35
473.59
406.18
406
397.48
384.88
418.24
382.28
457.1
383.16
426.52
398.73
401.33
403.28
312
313.63
334.98
287.96
276.89
248.15
295.68
291.99
282.46
222.29
274.36
199.77
212.12
226.09
155.47
199.75
179.72
120.1
138.78
76.39
95.7
80.58
72.92
4.67
-11.44
38.94
-48.17
-26.34
-26.02
-35.09
-39.12
-41.91
-61.32
-77.23
-137.31
-164.1
-111.99
-123.66
-176.44
-150.17
-231.44
-211.75
-200.2
-272.36
-238.54
-245.46
-307.86
-251.09
-343.96
-331.75
-376.71
-375.32
-395.26
-342.4
-354.66
-398.94
-359.34
-406.71
-390.95
-418.69
-451.74
-461.66
-476.31
-431.67
-430.01
-427.35
-429.85
-470.47
-522
-515.88
-530.36
-466.61
-469.69
-500.69
-456.74
-496.42
-485.49
-480.7
-541.09
-510.78
-451.26
-460.83
-465.43
-451.05
-484.16
-514.58
-475.48
-506.37
-442.35
995.86
-496.87
-507.76
-414.22
-491.85
-410.84
-475.21
-462.12
-398.4
-385.49
-431.9
-369.43
-356.56
-326.36
-327.06
-363.12
-390.23
-317.81
-282.54
-356.62
-257.73
-235.96
-233
-267.91
-290.22
-188.61
-255.09
-155.7
-157.17
-144.81
-165.83
-169.93
-161.37
-79.14
-121.49
-84.7
-76.06
-100.58
-15.37
-0.68
-0.26
-45.32
29.98
1.8
67.64
43.27
120.18
100.63
65.35
87.78
100.09
153.62
128.75
198.77
211.53
249.07
189.73
224.23
209.82
208.48
304.74
237.44
300.01
343.49
284.46
368.83
294.55
328.63
378.9
366.24
394.99
379.54
411.23
460.02
376.02
400.78
447.94
488.91
469.54
486.11
429.45
502.62
500.86
487.07
443.15
471.36
490.36
514.36
496.72
531.17
528.17
486.93
501.15
514.08
546.27
473.31
502.19
462.58
514.09
487.19
510.9
533.48
432.3
501.2
479.62
464.96
508.89
483.22
493.77
453.24
432.74
411.86
437.4
433.18
358.11
426.51
406.71
371.62
414.41
399.83
359.74
332.52
363.64
341.62
296.22
311.31
283.48
295.22
212.17
187.59
201.42
228.08
147.77
190.42
177.54
164.49
134.69
163.3
107.23
127.62
101.86
33.42
78.08
-0.94
37.6
-12.36
-17.79
-54.76
2.13
-91.48
-76
-125.74
-107.46
-159.47
-174.28
-183.71
-157.04
-135.37
-221.75
-183.81
-166.56
-263.39
-283.9
-269.61
-306.8
-236.22
-253.01
-351.35
-346.6
-282.68
-335.89
-389.02
-376.03
-399.69
-383.66
-404.59
-425.38
-399.64
-463.74
-406.83
-430.13
-400.79
-489.4
-447.17
-419.03
-515.54
-482.48
-476.37
-443
-520.92
-447.66
-517.19
-475.29
-510.58
-498.34
-454.66
-545.29
-539.11
-549.64
-517.4
-534.35
-464.29
-518.62
-469.99
-452.84
-512.46
-511
-447.64
-452.37
-500.03
-445.06
-496.67
-408.77
-475.02
-413.05
-445.74
-387.97
-451.22
-407.52
-371.93
-374.69
-350.81
-349.58
-351.04
-331.41
-339.18
-322.68
-267.77
-315.54
-271.09
-241.13
-287.31
-238.17
-276.4
-252.03
-212.77
-235.36
-217.21
-169.59
-162.85
-99.17
-150.09
-140.14
-133.15
-96.15
-106.09
-88.41
-13.1
-49.69
42.33
-30.72
21.09
64.84
43.92
57.08
77.42
100.39
116.68
178.17
191.77
124.05
145.21
213.44
174.05
239.61
182.38
253.45
276.26
275.83
319.38
297.29
319.58
278.22
303.36
323.62
353.4
328.94
347.08
336.74
357.46
415.69
385.81
381.34
381.6
395.77
411.15
422.36
462.02
435.86
432.05
462.6
459.06
441.87
464.42
534.92
499.18
476.15
450.89
472.27
513.72
456.25
530.16
519.56
517.83
506.53
467.47
509.79
478.33
472.64
469.17
484.25
429.58
465.51
507.76
482.34
425.48
446.69
403.65
390.16
404.95
387.72
463.96
395.34
366.21
376.83
345.68
371.58
401.65
364.72
367.96
283.8
269.92
319.38
1751.04
259.59
282.78
277.76
229.16
233.35
252.32
228.64
186
202.47
139.47
128.77
92.51
134.45
74.89
103.12
30.48
4.17
33.82
3.16
6.11
30.42
-67.85
-81.73
-12.56
-56.63
-74.79
-118.96
-80.62
-145.33
-178.26
-138.47
-137.83
-140.94
-192.77
-176.57
-213.31
-223.35
-243.23
-220.29
-315.01
-312.59
-269.09
-331.53
-361.79
-303.5
-335.45
-328.98
-415.24
-361.07
-364.57
-376.33
-384.08
-413.33
-442.2
-432.63
-463.36
-479.39
-481.32
-507.34
-513.96
-455.02
-442.6
-472.43
-470.92
-438.08
-539.6
-458.52
-527.86
-539.58
-490.57
-461.34
-463.41
-490.31
-453.33
-499.99
-536.33
-536.08
-511.46
-484.06
-446.25
-494.33
-477
-491.67
-492.22
-490.9
-448.72
-447.46
-404.99
-469.8
-421.69
-398.99
-409.12
-438.8
-391.07
-352.98
-428.54
-409.87
-386.54
-339.24
-378.26
-309.88
-359.43
-314.29
-242.9
-237.43
-279.08
-205.39
-220.49
-262.15
-178.18
-195.28
-235.7
-188.54
-114.03
-137.09
-116.11
-70.93
-147.71
-39.37
-118.87
-44.44
-60.72
-46.52
32.03
14.94
-21.58
71.94
18.38
113.76
39.54
100.03
129.07
143.75
157.29
110.84
199.03
190.15
160.41
238.43
244.03
254.7
273.86
225.67
293.42
262.84
344
295.06
358.75
295.32
353.86
317.37
367.27
353.48
353.67
423.33
401.28
458.69
439.25
474.98
388.94
448.01
483.84
492.8
474.51
468.06
494.92
1957.16
522.75
460.87
450.65
456.97
515.11
460.34
468.23
515.86
483.99
505.82
468.49
519.67
545.41
477.2
473.6
523.27
464.92
463.55
519.35
522.35
426.41
455.29
458.47
495.44
487.54
467.64
388.16
395.43
398.98
373.79
433.41
432.21
394.46
346.98
337.68
387.83
290.7
354.69
308.13
293.99
255.19
297.53
317.22
213.06
214.59
237.43
237.17
192.7
151.9
216.35
125.41
191.02
134.57
136.08
70.25
115.4
98.99
97.22
-3.08
50.08
28.45
-30.93
-49.65
-30.51
-28.53
-50.46
-37.59
-67.53
-147.29
-152.28
-137.23
-193.56
-188.48
-197.43
-190.83
-204.12
-216.14
-254.11
-242.2
-299.87
-227.5
-322.47
-254.12
-289.42
-309.63
-382.65
-334.26
-377.5
-326.21
-369.77
-414.79
-384.48
-439.47
-390.77
-398.84
-387.93
-463.77
-439.04
-418.87
-502.09
-428.91
-438.77
-445.06
-452.28
-466.43
-496.76
-465.77
-448.96
-511.59
-468.55
-485.58
-511.3
-469.52
-514.67
-451.53
-546.69
-501.23
-524.87
-485.37
-463.54
-519.2
-521.58
-494.9
-450.52
-508.28
-443.24
-478.95
-451.69
-450.27
-464.56
-472.86
-397.74
-400.26
-444.2
-403.89
-410.64
-370.52
-371.59
-321.99
-320.01
-319.81
-353.51
-366.71
-356.8
-340.82
-302.94
-302.77
-261.01
-270.11
-214.31
-220.22
-165.43
-145.44
-131.91
-162.08
-110.4
-150.78
-133.45
-118.1
-75.23
-73.49
-107.08
-55.33
-36.84
-60.26
-29.01
59.52
47.08
26.3
69.11
78.62
115.4
141.19
161.93
146.41
113.46
200.14
158.16
184.18
209.56
201.99
189.43
258.04
305.04
306.55
272.37
319.46
338.56
295.4
289.09
303.61
394.71
321.7
355.8
424.69
402.33
408.06
453.47
389.04
422.18
426.56
472.86
440.9
474.6
429.79
508.18
457.32
444.5
510.63
457.37
514.23
485.93
488.5
510.15
466.57
517.25
538.15
503.12
509.31
522.9
511.72
508.65
486.68
481.8
502.19
445.78
522.77
477.62
483.59
504.67
428.91
447.95
408.93
471.46
403.01
430.63
422.11
460.6
372.09
376.29
378.4
371.03
354.66
389.46
381.88
296.83
339.33
292.4
309.9
298.01
288.27
248.31
245.76
267.26
208.23
184.49
163.46
229.05
209.13
125.91
154.8
142.19
104.71
54.24
60.19
75.63
90.43
1.88
33.68
-0.08
18.33
-60.01
-15.14
-51.03
-68.38
-90.05
-134.27
-81.37
-102.4
-110.26
-183.1
-140.08
-188.35
-209.23
-192.12
-271.82
-223.3
-241.64
-300.55
-247.64
-287.66
-297.17
-286.73
-357.94
-370.52
-336.98
-324.19
-372.06
-350.7
-346.57
-390.31
-411.71
-451.12
-474.9
-421.72
-408.47
-482.62
-413.46
-420.71
-451.56
-423.72
-512.86
-513.33
-517.16
-478.75
-528.39
-481.49
-460.94
-475.37
-465.86
-494.7
-470.82
-542.99
-528.24
-526.99
-459.1
-472.22
-471.94
-439.82
-486.72
-473.35
-507.89
986.34
-438.12
-501.41
-442.85
-443.61
-466.71
-390.55
-463.13
-430.14
-455.38
-428.92
-356.5
-429.01
-338.31
-350.77
-373.56
-317.52
-383.17
-278.29
-286.78
-322.94
-326.49
-268.11
-232.35
-202.05
-259.12
-222.03
-227.48
-148.14
-195.26
-125.03
-120.39
-127.46
-141.24
-76.97
-94.25
-128.37
-110.97
-10.78
-82.5
-66.11
-32.69
40.31
58.27
-2.69
20.46
45.6
117.92
123.02
92.23
160.53
175.89
165.95
211.55
226.99
225.04
259.02
188.2
276.56
238.24
263.79
320.41
340.67
282.83
300.97
317.25
320.58
315.13
315.36
372.29
416.19
341.89
412.1
432.1
435.8
458.6
459.38
414.79
441.8
462.98
466.7
432.91
441.88
467.39
466.66
458.02
505.07
457.79
513.49
467.6
496.56
458.3
529.48
461.35
476.32
464.86
486.72
518.47
457.2
524.27
446.61
461.38
492.86
446.66
510.64
459.23
459.4
496.7
458.36
435.44
431.05
472.53
434.83
460.8
374.53
439.98
364.62
345.96
368.59
341.36
301.21
346
366.79
321.93
301.28
261.11
302.4
284.06
260.25
213.75
212.91
190.72
213.09
194.48
133.44
171.53
124.25
95.99
76.9
68.79
36.25
108.8
71.69
45.62
67.6
-22.94
42.24
-2.63
-5.18
-30.65
-93.93
-127.65
-52.67
-111.18
-116.22
-181.93
-164.22
-169
-209.29
-173.99
-236
-235.75
-282.48
-247.2
-286.68
-298.59
-333.35
1148.59
-287.67
-373.41
-290.45
-323.77
-367.7
-400.24
-367.79
-426.68
-431.47
-384.54
-378.44
-379.44
-397.36
-407.69
-441.8
-502.05
-423.57
-449.92
-504
-441.06
-527.41
-465.9
-500.24
-508.12
-447.08
-467.85
-521.78
-502.76
-534.2
-506.78
-499.74
-491.69
-526.75
-513.92
-482.16
-515.2
-488.82
-480.12
-444.75
-468.19
-434.32
-482.21
-505.73
-449.08
-414.11
-488.98
-400.43
-449.79
-410.76
-431.41
-454.17
-401.85
-398.47
-340.74
-362.13
-343.69
-348.08
-362.8
-376.49
-267.63
-292.41
-249.23
-235.57
-282.98
-226.61
-270.6
-182.43
-219.97
-179.59
-211.32
-135.5
-152.15
-110.64
-164.79
-120.57
-82.73
-89.09
-108
-46.09
-71.15
-67.69
-51.3
-21.28
51.87
12.01
46.54
74.17
106.54
93.96
69.32
105.7
126.15
175.77
179.4
165.45
235.09
243.6
197.61
221.29
228.17
213.59
230.53
265.09
332.31
321.37
365.94
294.44
324.74
328.34
366.98
345.83
427.97
435.12
392.67
437.3
397.55
402.32
462.71
447.21
429.97
467.32
471.39
496.75
511.09
514.99
454.33
445.83
462.1
540.53
496.81
516.96
532.05
457.21
464.85
531.42
511.39
519.33
472.55
532.9
483.23
451.91
476.15
480.99
443.66
447.03
514.65
449.73
505.54
456.18
474.97
446.26
384.57
413.81
464.8
414.12
382.68
375.86
417.73
410.15
408.36
371.54
382.69
311.57
354.73
326.52
322.37
320.16
299.26
294.84
253.23
194.33
249.29
160.81
145.9
190.99
148.17
144.93
91.9
144.47
147.76
125.08
70.8
26.24
0.09
22.63
13.52
41.49
3.86
-5.42
-77.19
-15.82
-104.71
-96.36
-99.47
-75.87
-109.68
-104.92
-171.63
-146.4
-241.71
-224.07
-179.27
-283.27
-231.28
-262.46
-286.94
-282.63
-315.75
-313.21
-294.12
-304.41
-304.34
-387.82
-352.29
-384.44
-411.2
-443.95
-426.6
-392.85
-375.77
-413.76
-473.42
-399.63
-492.22
-496.55
-446.34
-450
-500.91
-477.06
-443.74
-532.53
-502.75
-500.53
-512.33
-521.29
-544.48
-540.29
-536.83
-535.27
-489.3
-547.34
-483.56
-447.57
-495.1
-462.35
-517.35
-476.2
-441.8
-432.47
-490.16
-499.42
-432.22
-480.71
-410.07
-423.87
-428.11
-411.94
-458.99
-420.36
-406.39
-428.4
-357.42
-421.51
-377.15
-325.03
-320.03
-362.57
-294.56
-288.31
-317.4
-296.76
-296.59
-235.51
-256.34
-190.33
-231.82
-178.01
-145.49
-145.28
-183.96
-186.9
-107.63
-140.67
-122.13
-101.44
-28.02
-75.67
-22.43
-34.36
-22.34
8.36
-29.77
-14.05
59.9
49.6
114.86
79.89
81.28
123.73
181.86
157.86
166.72
187.26
240.63
236.66
266.18
222.93
205.55
262.07
235.79
269.49
327.93
357.35
348.18
336.09
345.76
342.9
376.44
401
394.08
407
429.49
409.27
396.85
406.52
446.25
467.11
416.98
455.27
475.69
489.24
430.12
2004.48
443.81
509.67
453.66
525.16
453.42
542.16
468.01
468.14
496.19
487.19
539.52
462.94
454.73
467.96
482.48
492.58
483.42
450.75
450.3
520.27
440.08
494.09
455.94
474.25
465.92
424.61
437.69
474.37
385.18
449.09
382.69
430.64
392.37
397.79
356.13
329.01
390.33
348.62
315.29
353.02
326.04
267.67
255.28
225.16
249.72
262.67
181.92
157.43
171.58
142.83
177.98
128.36
140.56
102.83
76.62
82.85
75.6
38.9
92.11
54.38
4.36
42.81
-24.89
-62.43
-67.92
-82.42
-96.97
-109.34
-82.2
-135.22
-161.05
-136.06
-114.69
-129.69
-161.78
-159.56
-177.02
-252.09
-258.56
-219.7
-310.9
-253
-275.23
-282.72
-271.67
-365.98
-370.39
-330.15
-348.28
-422.07
-348.68
-415.33
-370.4
-432.31
-374.59
-455.64
-406.14
-434.58
-421.54
-502.39
-436.93
-480.27
-469.23
-435.67
-500.65
-439.05
-444.31
-458.36
-507.29
-483.94
-545.25
-453.92
-483.85
-459.84
-492.55
-490.64
-472.89
-523.36
-501.03
-500.26
-501.83
-459.29
-441.24
-472.73
-510.39
-448.44
-462.81
-502.02
-438.49
-442.85
-449.55
-412.42
-420.03
-461.99
-373.35
-380.26
-396.99
-364.15
-400.1
-311.98
-332.78
-336.95
-316.72
-357.68
-261.99
-332.48
-316.3
-227.4
-276.1
-199.99
-213.27
-245.08
-218.42
-217.18
-152.77
-110.65
-140.49
-87.24
-121.73
-85.52
-88
-77.16
-45.2
-32.61
-27.86
-20.62
1512.94
43
56.04
73.83
117.49
54.04
132.53
112.96
151.7
138.09
115
166.08
231.4
204.17
185.12
198.47
280.1
227.94
263.17
326.1
275.13
303.43
342.24
293.22
369.38
316.2
387.92
343
360.93
411.03
417.32
387.62
367.88
417.31
479.52
469.24
418.64
494.35
425.68
420.66
436.25
521.01
456.71
504.89
480.39
445.73
447.2
505.57
453.74
511.91
491.94
510.51
521.5
531.31
480.03
511.38
513.86
512.87
528.39
491.72
476.81
439.67
504.83
490.38
422.75
413.41
419.8
400.5
394.49
429.91
398.43
461.05
442.38
417.18
414.79
409.83
346.94
392.37
301.62
376.42
314.24
352.99
321.4
242.39
326.68
278.36
230.35
192.69
204.52
185.23
198.82
187.65
154.97
131.85
147.55
105.78
91.83
133.31
87.78
40.63
91
-2.96
19.58
-4.28
-45.04
-69.48
-35.2
-53.59
-19.49
-122.5
-118.57
-124.88
-77.75
-99.03
-152.86
-120.49
-233.79
-163.58
-168.16
-218.94
-268
-255.79
-288.29
-244.89
-290.94
-284.56
-313.47
-307.67
-360.64
-357.38
-310.7
-385.1
-334.82
-400.73
-431.7
-386.69
-384.05
-414.84
-451.99
-445.12
-428.83
-446.44
-499.55
-445.2
-477.82
-512.26
-474.81
-524.86
-520.58
-517.42
-446.02
-540.24
-463.17
-534.07
-509.28
-475.13
-524.04
-472.24
-545.1
-476.96
-460.25
-448.41
-529.26
-473.37
-520.79
-432.15
-428.19
-491.63
-482.41
-442.55
-502.28
-426.44
-439.04
-467.86
-439.65
-429.73
-402.37
-436.27
-437.48
-346.81
-391.29
-320.31
-344.51
-327.69
-343.35
-307.1
-324.47
-265.94
-251.45
-274.41
-219.68
-254.84
-274.3
-229.96
-201.91
-233.85
-207.04
-163.58
-111.09
-154.76
-124.38
-131.16
-68.15
-86.16
-59.94
-89.75
-51.9
-42.96
-37.21
15.79
81.36
17.12
51.13
65.41
58.59
152.48
94.2
180.31
155.09
187.11
173.21
197.03
167.25
205.21
211.86
224.26
292.31
303.08
252.1
326.26
320.62
302.82
329.99
315.25
391.13
367.78
350.9
354.55
443.12
374.42
401.34
375.71
400.28
392.11
432.35
490.83
440.58
442.69
431.46
510.09
479.45
461.71
470.41
502
454.19
471.53
519.06
511.52
544.89
452.76
541.36
486.21
505.64
542.53
489.31
477.33
534.18
511.21
458.17
432.45
511.2
429.58
430.48
418.03
468.99
410.41
430.58
428.44
452.18
417.85
381.51
443.58
374.32
387.22
383.28
394.03
392.42
332.19
379.08
274.47
321.09
317.47
279.31
264.81
235.58
264.46
212.13
223.21
217.66
148.46
173.99
201.36
171.64
89.81
120.84
75.46
38.5
30.62
58.08
32.98
13.99
-7.32
-6.3
-14.2
-70.86
-16.31
-55.16
-60.25
-129.77
-94.91
-110.48
-93.19
-166.02
-122.79
-136.24
-226.86
-186.82
-228.73
-237.85
-245.39
-284.58
-298.04
-249.01
1187.83
-332.64
-304.43
-369.84
-375.62
-372.95
-329.85
-336.94
-403.16
-423.05
-422.89
-420.58
-459.03
-385.31
-402.33
-401.09
-438.28
-417.58
-446.17
-422.6
-514.16
-508.06
-480.51
-437.02
-485.65
-499.88
-472.08
-493.05
-522.09
-476.46
-479.58
-519.75
-545.91
-490.09
-448.45
-476.9
-463.2
-472.99
-460.05
-502.67
-432.8
-499.32
-521.83
-423.83
-440.7
-452.52
-482.76
-476.39
-482.84
-476.39
-425.25
-406.59
-434.94
-406.52
-416.36
-360.94
-345.59
-357.61
-330.81
-342.25
-366.62
-280.41
-310.64
-323.28
-287.34
-287.95
-292.08
-208.92
-226.6
-230.93
-206.92
-192.61
-136.74
-176.88
-168.7
-122.43
-55.26
-111.61
-30.25
-46.67
-46.19
-56.92
12.58
28.13
41.05
18.35
9.18
36.9
48.41
122.23
56.34
69.81
112.61
188.76
200.21
138.5
159.56
247.5
181.29
192.54
209.23
302.26
243.25
329.65
297.69
355.63
296.56
340.39
323.17
327.54
401.34
344.22
343.21
415.04
386.62
437.03
407.22
450.97
469.48
466.04
476.86
488.91
491.86
438.34
507.54
470.39
451.79
534.6
492.8
508.77
541.75
491.19
498.77
532.2
549.31
460.91
474.98
528.38
475.64
538.72
512.92
448.35
538.89
473.47
456.67
465.02
488.77
511.7
464.75
414.51
485.21
425.07
483.42
418.56
440.53
393.66
384.92
350.41
367.65
417.25
400.63
367.4
304.41
340.81
271.66
319.14
279.94
1803.68
286.11
301.82
273.42
257.32
219.94
157.78
177.47
157.21
145.74
128.74
154.18
146.73
104.42
89.97
47.79
110.12
91.8
28.13
17.3
46.63
-45.23
-18.89
-54.78
-81.17
-76.05
-39.78
-62.97
-126.33
-137.99
-152.09
-177.32
-127.89
-226.95
-183.24
-206.2
-268.23
-247.8
-255.88
-230.27
-231.71
-275.86
-265.7
-351.11
-373.25
-353.91
-336.83
-322.36
-417.86
-386.86
-370.59
-361.01
-424.67
-425.67
-418.08
-474.66
-393.8
-485.43
-497.63
-414.3
-491.23
-427.51
-487.48
-513.93
-485.65
-508.97
-510.64
-502.8
-488.99
-537.09
-451.75
-545.78
-498.28
-453.51
-546.23
-494
-500.56
-458.97
-489.39
-508.49
-436.62
-448.3
-431.37
-441.19
-515.53
-477.24
-436.5
-448.2
-451.63
-402.91
-434.96
-382.89
-435.14
-391.23
-393.56
-393.81
-411.71
-408.4
-356.86
-332.85
-314.33
-305.65
-318.15
-338.2
-319.68
-249.44
-287.34
-247.51
-189.99
-200.17
-248.48
-198.77
-170.84
-120.84
-124.58
-177.64
-132.48
-130.8
-77.83
-111.53
-64.89
-18.63
-31.06
-46.2
36.3
-23.35
39.88
22.47
83.82
69.44
74.38
105.77
161.14
118.33
149.07
169.06
179.24
175.96
185.99
229.33
239.6
260.02
286.04
239.46
323.84
311.34
329.62
326.14
347.43
303.6
360.67
377.25
415.56
428.82
365.1
353.37
388.47
370.23
464.66
446.19
474.14
431.35
475.63
468.25
456.42
462.48
429.05
456.44
491.4
500.17
535.62
484.2
522.72
488.09
501.22
451.85
527.5
543.05
543.93
449.75
464.46
471.8
477.89
469.57
494.06
491.05
500.14
518.97
441.6
437.2
503
501.33
452.38
411.16
438.71
424.38
454.31
370.22
423.2
350.17
334.71
370.15
401.48
395.01
301.48
357.53
272.47
321.83
315.77
282.68
266.15
293.12
236.11
246.96
233.41
154.89
154.54
123.08
147.29
105.19
173.46
155.96
146.01
79.76
104.31
79.55
25.69
65.88
-41.87
16.16
18.79
-86.41
-94.93
-38.13
-39.7
-138.18
-119.16
-123.71
-168.49
-200.67
-190.07
-142.27
-188.77
-163.35
-177.96
-217.41
-205.93
-281.54
-248.02
-316.02
-334.32
-335.23
-313.35
-367.97
-343.46
-393.55
-418.28
-369.16
-391.9
-447.35
-442.04
-372.67
-420.83
-387.85
-476.61
-420.44
-421.43
-485.08
-414.89
-481.08
-431.05
-439.72
-466.48
-439.28
-510.63
-500.03
-538.8
-543.03
-489.92
-488.88
-470.39
-488
-516.8
-543.66
-518.18
-487.93
-508.41
-443.46
-490.11
-491.32
-448.46
-465.87
-469.17
-423.42
-498.34
-451.28
-484.82
-465.81
-423.82
-449.16
-414.35
-457.68
-448.15
-399.72
-425.34
-414.12
-381.4
-356.18
-380.05
-319.99
-334.78
-349.24
-323.7
-312.55
-298.47
-219.14
-275.96
-240.57
-236.28
-172.68
-147
-192.73
-186.95
-140.55
-86.77
-135.52
-91.33
-122.14
-98.46
-64.86
-45.31
-24.15
15.36
1552.11
-27.14
34.38
97
95.82
109.58
90.61
71.42
148.1
145.36
189.82
143.19
199.07
177.57
247
235.39
237.8
246.02
223.21
287.41
336.76
254.49
266.5
274.54
295.97
303.77
320.16
380.67
332.76
422.77
375.29
453.72
402.93
420.49
425.16
484.58
398.67
435.01
414.93
446.96
508.35
436.56
458.22
486.82
464.27
473.46
509.57
525.57
453.01
533.19
465.97
503.64
549.36
513.02
529.66
533.8
523.82
543.49
479.5
476.43
441.37
443.67
486.07
437.44
512.28
505.35
490.17
473.7
460.49
478.31
417.86
404.64
410.69
383.54
346.95
427.91
339.75
380.56
356.01
361.72
377.86
313.61
338.82
293.4
236.25
256.25
211.72
254.64
219.37
239.3
245.51
160.18
159.89
204.75
125.99
100.13
149.57
59.78
118.62
42.68
89.64
76.25
-8.45
-18.15
-7.68
20.48
-24.5
-7.41
-101.31
-70.95
-64.72
-81.09
-160.99
-120.41
-184
-148.51
-166.4
-210.76
-237.81
-189.02
-210.34
-202.46
-286.42
-270.81
-279.7
-286.53
-293.18
-340.33
-315.97
-337.48
-375.69
-410.45
-377.93
-344.57
-421.38
-446.28
-389.25
-440.76
-408.51
-442.48
-393.61
-418.5
-434.03
-484.11
-433.49
-463.07
-510.94
-498.12
-513.07
-491.06
-450
-473.99
-538.42
-484.46
-476.58
-477.39
-528.97
-532.71
-495.23
-492.04
-534.52
-486.43
-501.84
-446.57
-445.85
-438.32
-484.45
1032.48
-424.04
-453.96
-495.53
-430.47
-480.77
-419.87
-392.37
-450.12
-443.6
-371.91
-357.41
-370.62
-360.76
-412.97
-321.19
-319.91
-329.66
-344.17
-276.58
-259.12
-238.25
-238.09
-254.87
-255.49
-194.42
-218.83
-209.4
-209.84
-192.91
-150.73
-190.33
-137.35
-98.45
-68.09
-99.79
-80.48
-30.2
-66.98
6.65
0.83
-12.85
42.42
-15.55
25.54
103.76
95.21
91.25
149
124.2
174.71
114.54
178.81
213.94
153.13
234.26
244.25
260.43
234.99
229.92
305.05
296.86
341.72
267.3
342.18
287.13
381.04
334.46
333.34
334.47
426.08
434.88
437.82
408.09
389.9
392.7
466.6
419.8
484.63
492.55
489.62
454
502.49
510.57
510.04
479.61
449.36
441.63
464.83
538.75
487.75
523.9
513.94
477.69
542.24
545.55
537.67
459.39
468.62
523.27
473.61
446.06
503.74
472.28
498.96
463.69
422.04
420.88
494.14
417.03
476.52
387.34
453.51
425.51
420.48
419.81
421.93
353
412.25
397.26
336.63
362.29
341.31
353.01
275.08
251.44
296.68
281.48
244.35
224.52
195.05
256.58
186.32
146.53
197.59
167.04
113.52
169.22
71.68
117.29
96.87
33.95
87.85
14.9
1.54
20.64
-32.05
9.77
-7.57
-85.58
-61.04
-51.52
-120.12
-92.43
-89.7
-153.66
-145.92
-184.47
-151.79
-210.74
-216.81
-221.46
-258.34
-286.3
-222.64
-323.44
-290.43
-312.28
-362.98
-339.5
-349.56
-347.1
-327.52
-372.68
-423.38
-369.45
-359.88
-425.39
-403.73
-379.64
-453.74
-395.12
-479.02
-444.47
-456.35
-420.76
-487.47
-469.61
-499.88
-492.54
-499.05
-511.4
-496.26
-524.85
-494.01
-482.31
-457.34
-538.26
-459.14
-531.8
-522.88
-497.2
-451.79
-445.45
-511.06
-461.21
-452.99
-430.11
-424.83
-488
-427.97
-464.64
-496.93
-433.68
-435.63
-420.89
-469.81
-437.36
-409.28
-440.8
-340.44
-372.9
-355.63
-353.97
-320.78
-358.49
-305.23
-357.32
-318.76
-305.37
-282.77
-264.48
-222.26
-218.62
-187.07
-176.81
-162.02
-200.5
-142.43
-112.42
-157.45
-132.73
-64.86
-79.58
-34.07
-43.25
-67.91
-50.47
-21.1
4.11
50.23
1.47
39.68
96.57
117.47
108.32
100.99
163.91
141.9
129.29
194.88
128.14
230.53
164.47
207.49
261.2
195.91
264.11
227.57
290.19
310.22
300.14
363.04
282.93
359.55
364.25
404.54
363.99
374.06
348.38
436.42
433.9
454.31
448.31
397.46
489.28
414.43
439.25
434.22
486.48
427.98
485.1
520.2
467.95
483.23
447.19
452.55
545.56
451.98
478.94
541.13
515.07
474.08
508.01
533.22
480.45
507.66
488.14
525.25
504.97
434.21
467.12
454.46
443.79
498.97
457.43
499.43
422.16
431.82
422.72
461.44
413.61
384.88
371.38
416.22
395.77
320.24
374.66
376.47
330.35
326.29
334.34
317.09
1835.76
300.29
280.26
238.71
205.53
242.04
222.53
233.5
140.66
196.07
185.53
99.18
91.17
146.41
122.97
50.76
26.22
94.4
25.77
65.91
33.61
-22.22
23.67
-56.55
-38.5
-114.05
-71.35
-142.36
-122.72
-87.24
-163.72
-127.84
-124.82
-166.52
-170.16
-240.7
-225.32
-253.35
-248.3
-216.44
-251.38
-246.13
-269.53
-271.8
-338.92
-341.66
-359.79
-397.34
-324.15
-407.06
-422.38
-369.38
-419.44
-414.4
-451.71
-387.54
-402.08
-477.75
-468.18
-504.46
-475.02
-456.81
-439.67
-474.3
-522.2
-490.61
-534.64
-519.69
-449.22
-543.25
-547.55
-473.09
-504.37
-500.1
-531.55
-517.86
-507.38
-461
-450.63
-483.24
-515.08
-519.89
-440.41
-435.18
-497.99
-423.45
-435.96
-448.39
-474.57
-401.51
-478.28
-454.63
-451.13
-455.1
-448.97
-408.22
-374.58
-383.67
-343.95
-349.41
-291.47
-372.14
-363.27
-311.86
-243.47
-240.52
-311.21
-205.36
-278.31
-211.09
-212.13
-248.86
-179.1
-221.15
-172.18
-131.37
-139.44
-147.85
-147.9
-110.07
-53.19
-27.49
-51.16
-45.27
21.21
-8.85
21.91
83.86
15.54
67.18
50.39
124.2
158.85
124.5
180.57
195.48
171.53
174.7
146.09
207.46
221.15
282.11
243.47
234.51
253.18
326.61
268
311.94
283.46
383.37
323.29
361.35
320.17
415.85
360.38
400.72
416.18
454.62
415.13
476.69
469.07
408.56
419.13
437.44
510.89
472.42
515.27
1948.01
482.09
441.5
481.67
501.45
525.22
460.66
506.64
534.77
451.56
471.24
467.36
493.41
546.46
488
469.72
462.76
501.34
434.6
523.19
436.4
431.14
437.54
460.72
461.21
413.27
459.57
420.55
402.14
429.4
401.66
370.23
420.31
362.45
389.69
365.34
349.36
326.17
322.55
362.57
302.43
315.78
322.45
270.05
305.96
269.83
228.67
202.62
210.21
161.2
191.56
193.44
180.35
85.05
155.19
150.58
136.55
99.39
78.73
15.89
-8.81
48.94
-36.37
-28.39
-11.86
-85.86
-51.88
-37.86
-110.27
-141.94
-139.44
-156.72
-112.42
-204.12
-150.68
-159.23
-165.63
-191.87
-275.82
-216.66
-257.53
-234.38
-302.67
-262.63
-354.28
-310.35
-339.16
-320.99
-314.85
-390.71
-335.36
-410.4
-398.2
-416.88
-436.75
-449.34
-431.87
-449.53
-426.74
-477.08
-460.41
-491.69
-507.73
-430.12
-449.4
-462.62
-456.6
-513.98
-522.2
-532.51
-487.14
-491.81
-493.86
-544.24
-487.33
-521.86
-453.86
-506.28
-541.08
-467.65
-454.1
-468.92
-516.35
-526.04
-435.57
-509.97
-483.43
-493.46
-460.92
-495.15
-459.88
-407.84
-464.17
-410.42
-393.39
-403.65
-412.92
-425.91
-348.25
-374.17
-373.11
-323.79
-376.17
-353.62
-318.73
-344.36
-283.61
-257.31
-307.22
-203.17
-244.68
-255.09
-226.33
-211.93
-196.97
-155.74
-146.37
-122.32
-86.72
-94.96
-114.41
-103.37
-39.73
-4.07
-55.84
26.97
1468.53
56.51
38.77
66.33
50.06
110.08
45.16
104.63
122.09
87.29
116.77
125.36
214.38
235.27
229.17
179.84
210.47
219.6
307.09
271.01
269.65
333.27
308.31
272.39
379
350.65
373.83
358.44
379
401.06
430.27
382.36
430.04
436.82
423.87
474.93
452.45
405.96
417.54
416.24
496.28
502.93
457.76
509.84
439.91
500.54
479.27
493.46
495.78
474.34
511.49
452.94
501.66
525.23
477.2
544.55
517.98
467.5
512.77
481.04
475.13
437.65
449.89
449.79
478.59
455.23
499.85
404.68
458.98
415.97
414.44
470.78
379.18
361.18
347.73
413.91
381.98
388.44
356.21
302.05
345.68
313.2
280.36
254.36
249.85
276.03
250.31
230.1
237.43
215.69
198.67
183.98
208.89
208.3
112.26
117.01
85.62
89.83
129.99
58.93
107.45
63.36
8.88
15.25
-15.45
-5.83
-24.59
-78.28
-27.72
-79.07
-135.84
-61.81
-69.5
-160.19
-110.03
-123.44
-173.92
-219.03
-163.14
-225.72
-197.14
-247.61
-243.33
-249.28
-312.66
-287.52
-272.01
-274.76
-348.94
-293.2
-399.58
-333.08
-365.57
-428.35
-426.51
-398.85
-448.46
-387.1
-391.42
-480.92
-454.98
-413.31
-493.12
-483.1
-492.76
-485.65
-525.97
-473.59
-450.98
-440.83
-526.27
-502.51
-491.96
-478.17
-471.51
-533.25
-462.09
-473.72
-472.05
-539.29
-506.13
-527.47
-500.28
-454.02
-448.3
-477.56
-507.12
992.75
-450.64
-416.51
-414.72
-417.47
-466.62
-462.2
-439.58
-389.71
-422.68
-396.19
-380.5
-420.39
-361.64
-386.11
-332.71
-338.13
-368.08
-347.82
-310.62
-264.19
-324.92
-319.55
-215.47
-243.75
-193.99
-265.44
-201.42
-188.3
-164.14
-170.33
-169.53
-151.06
-137.21
-130.59
-85.7
-81.31
-71.39
-91.61
-40.54
-61.38
16.94
2.81
18.32
44.47
95.93
23.78
49.1
118.69
106.74
129.72
166.18
181.47
152.58
196
183.28
259.77
263.15
244.96
279.45
234.24
231.87
249.79
310
289.33
340.67
339.28
345.62
362.94
394.89
390.26
398.19
367.06
378.89
433.57
447.49
466.9
439.13
458.78
454.16
498.93
455.24
450
475.15
475.09
455.46
438.68
492.34
465.32
510.91
492.43
504.75
538.42
502.11
543.56
465.65
525.72
540.13
492.11
490.97
442.71
470.27
456.46
464.55
478.76
514.65
492.01
454.03
426.47
446.23
399.21
388.34
393.99
401.12
390.77
427.3
380.58
388.61
415.2
322.35
311.02
366.8
316.64
358.72
278.85
275.88
230.09
304.65
283.44
197.69
183.1
170.05
230.86
207.32
204.71
165.32
182.64
121.32
89.82
128.37
101.2
113.38
3.77
10.99
-22.7
-26.2
6.92
9.94
-67.12
-75.79
-36.18
-95.04
-53.04
-90.76
-164.09
-159.35
-185.68
-171.74
-150.56
-189.65
-221
-221.4
-200.1
-207.53
-311.53
-314.23
-314.91
1192.6
-362.39
-369.54
-322.76
-374.79
-315.01
-365.03
-363.3
-370.83
-405.88
-420.17
-375.94
-433.75
-420
-468.58
-416.16
-444.9
-495.65
-435.26
-518.23
-462.47
-481.82
-445.05
-441.75
-465.02
-444.32
-517.7
-458.51
-486.88
-513.31
-468.98
-538.24
-477.25
-512.42
-497.36
-483.19
-479.06
-453.05
-480.1
-503.42
-490.38
-481.23
-489.69
-502.04
-436.33
-428.81
-420.46
-473.38
-424.8
-390.38
-445.13
-363.04
-434.38
-357.55
-391.71
-412.18
-388.6
-392.98
-327.46
-328.14
-287.45
-310.9
-316.93
-235.11
-276.71
-253.06
-215.24
-189.29
-165.82
-172.25
-223.38
-211.82
-115.87
-174.54
-126.11
-123.18
-63.26
-100.85
-83.12
-87.19
-10.6
-33.87
31.06
-20.22
27.12
59.94
82.01
43.59
116.41
119.45
88.5
141.18
98.15
133.65
208.45
148.22
194.05
169.99
187.15
228.54
277.2
303.67
281.35
264.96
271.18
309.42
314.85
351.07
344.41
307.89
327.37
390.54
347.59
348.42
413.93
398.12
422.44
474.27
485.21
412.73
442.54
507.2
424.98
515.22
507.63
465.58
485.84
472.11
517.22
491.07
492.53
519.79
502.53
511.43
510.82
538.36
476.47
474.5
526
501.23
519.08
499.59
504.56
528.11
507.61
432.85
510.48
505.08
420.27
495.95
491.49
401.79
385.27
380.77
430.75
393.92
406.42
348.13
409.18
378.86
340.22
310.98
342.68
292.21
279.01
349.44
1807.99
235.65
228.22
273.48
196.09
190.4
259.44
153.14
156.1
138.28
130.25
147.3
118.27
98.49
135.05
49.3
88.46
93.73
4.26
64.42
-18.51
15.94
-37.89
-68.64
-89.09
-70.51
-119.16
-72.34
-109.36
-124.85
-168.27
-173.85
-175.67
-189.66
-171.22
-217.07
-251.96
-219.04
-257.74
-261.6
-301.65
-332.12
-315.05
-297.22
-323.04
-318.72
-337.14
-321.19
-392.55
-335.4
-388.66
-361.26
-373.92
-450.26
-397.15
-380.81
-411.26
-455.23
-407.73
-442.8
-480.99
-433.48
-429.13
-513.19
-527.3
-472.88
-511.95
-529.69
-531.99
-525.55
-449.29
-489.66
-452.48
-469.28
-455.75
-539.35
-448.19
-498.18
-524.99
-490.46
-473.28
-532.06
-434.46
-473.25
-492.96
-457.95
-445.99
-439.44
-431.45
-487.73
-463.85
-438.65
-460.36
-373.85
-412.97
-362.24
-419.35
-420.33
-345
-375.5
-391.4
-329.99
-339.03
-343.02
-268.41
-259.51
-319.7
-211.81
-256.91
-190.11
-187.47
-191.98
-156.3
-175.64
-122.42
-121.6
-127.5
-76.13
-84.58
-61.47
-118.79
-108.14
-20.28
-3.07
-0.22
-48.61
15.48
43.36
44.27
50.55
31.16
100.51
93.34
113.89
89.66
115.69
185.12
164.29
172.99
192.03
192.32
267.88
292.13
220.44
280.99
309.41
255.68
338.29
360.81
306.82
311.71
367.89
385.16
406.2
390.97
428.31
396.12
400.27
421.4
392.28
456.64
477.35
492.14
475.78
428.4
504.01
496.21
1972.5
520.39
503.81
497.07
508.68
542.29
462.96
465.43
505.69
449.83
527.18
451.57
529.9
505.01
463.57
464.2
468.99
534.52
444.12
456.83
507.21
441.83
460.29
491.37
436.19
403.96
430.18
462.65
460.61
423.05
367.34
429.16
348.24
425.69
385
384.04
403.4
305.92
305.55
335.72
283.67
342.24
325.35
270.87
264.73
294.24
193.06
172.54
208.58
217.08
173.8
142.61
105.74
119.28
148.01
118.95
116.08
61.15
64.5
66.25
76.27
-7.97
-2.74
24.88
-42.76
-55.53
-85.32
-57.38
-134.75
-126.27
-99.89
-145.96
-106.67
-169.06
-195.75
-174.11
-164.33
-235.2
-240.28
-285.97
-267.26
-244.68
-293.68
-340.04
-329.59
-302.5
-306.9
-331.51
-380.51
-326.64
-412.96
-390.26
-386
-357.39
-432.65
-429.96
-453.61
-385.91
-412.04
-412.15
-419.12
-506.99
-498.91
-500.44
-504.33
-516.88
-494.45
-494.57
-448.13
-473.41
-543.36
-468.61
-515.68
-533.37
-452.69
-532.27
-479.29
-495.89
-540.04
-527.33
-456.6
-466.71
-480.19
-500.32
-463.36
-522.68
-501.35
-475.31
-450.44
-454.85
-435.52
-419.19
-394.91
-432.18
-371.97
-403.51
-359.7
-391.28
-329.84
-379.34
-311.65
-307.03
-358.3
-327.56
-282.31
-349.19
-334.95
-264.14
-274.93
-248.92
-200.99
-227.13
-259.33
-244.14
-228.63
-212.85
-130
-158.8
-118.8
-156.81
-120.42
-108.89
-99.38
-58.72
-14.32
-20.31
32.39
1499.68
-9.63
59.35
83.52
58.92
115.81
85.14
125.37
131.73
164.96
132.78
175.04
201.97
241.48
208.05
270.02
265.51
257.93
255.83
295.72
314.21
272.6
333.13
289.71
376.19
386.43
397.95
406.27
429.94
359.38
395.82
400.9
390.43
396.64
475.43
392.44
475.04
408.95
420.47
440.25
494.94
495.99
441.59
529.2
455.85
538.41
455.33
449.89
526
528.51
529.01
541.28
472.96
528.75
479.38
464.17
512.58
515.46
531.32
509.37
444.09
507.5
468.69
493.86
470.04
414.35
446.38
397.92
461.46
410.39
404.83
427.09
402.85
391.2
430.34
389.77
352.47
351.44
361.39
377.57
282.26
362.03
349.58
254.26
291.02
297.4
297.2
240.1
189.69
247.58
148.19
230.81
125.94
137.72
91.64
99.81
145.33
56.82
98.09
19
33.37
76.86
32.81
43.89
29.44
-7.56
-55.79
-11.4
-74.34
-111.72
-82.23
-103.36
-82.46
-139.68
-188.52
-175.86
-215.4
-247.34
-236.72
-255.77
-246.96
-229.23
-246.84
-256.22
-275.43
-274.56
-354.77
-346.72
-301.69
-384.63
-330.66
-320.79
-373.22
-406.43
-395.85
-455.9
-413.27
-407.68
-399.24
-461.88
-471.81
-447.73
-497.92
-507.48
-453.02
-477.94
-462.68
-475.14
-485.61
-486
-458.99
-541.39
-502.62
-481.16
-505.78
-515.96
-492.57
-538.74
-538.19
-529.25
-454.63
-524.92
-461.46
-476.34
-477.09
-463.86
1044.87
-430.35
-513.89
-440.03
-405.02
-401.24
-445.37
-470.69
-471.86
-417.37
-432
-370.76
-356.19
-420.42
-399.62
-394.97
-357.7
-322.41
-317.63
-280.19
-306.91
-276.28
-296.34
-259.67
-295.86
-240.15
-201.27
-223.97
-172.51
-220.09
-155.49
-181.31
-126.34
-142.51
-123.95
-146.01
-91.01
-64.04
-62.6
-79.44
-32.25
31.36
50.28
-8.97
15.9
57.14
102.83
130
55.29
142.4
171.27
142.93
169.18
183.98
183.8
204.96
186.74
208
223.96
272.52
259.96
321.66
241.04
334.76
327.46
339.9
300.6
378.11
388.72
337.27
350.5
410.77
393.37
408.78
368.32
458.54
440.22
420.29
424.59
453.2
450.02
418.01
434.93
517.74
441.18
486.15
490.72
515.36
458.71
538.36
459.46
513.62
503.2
509.14
533.42
510.39
531.21
480.95
521.72
482.72
478.96
474.93
466.74
473.6
496.11
422.54
425.1
467.83
503.81
432.94
435.27
440.85
453.04
431.91
451.57
368.36
383.96
376.85
418.88
360.31
323.83
360.11
362.95
341.88
288.88
340.56
328.67
311.3
289.81
291
250.42
186.81
157.93
212.19
208.38
112.33
109.67
110.54
156.48
108.41
107.13
79.41
64.97
20.22
1
-22.75
-30.05
-36.87
-58.12
-44.03
-106.66
-77.06
-104.24
-104.58
-83.45
-157.96
-187.7
-163.02
-189.78
-203.88
-253.97
-248.08
-231.79
-219.93
-252.4
-255.9
-293.59
1196.35
-314.93
-280.3
-328.49
-348.32
-380.97
-383.78
-394.57
-349.09
-409.99
-371.34
-379.15
-388.12
-408.56
-421.85
-417.46
-481.92
-426.62
-470.8
-462.03
-501.92
-482.19
-477.84
-521.31
-486.67
-446.93
-509.83
-501.37
-465.01
-522.13
-537.62
-474.04
-497.06
-508.09
-487.93
-484.01
-522.49
-539.02
-482.1
-448.63
-458.09
-460.43
-458.88
-455.24
-473.36
-499.83
-451.31
-422.31
-471.79
-390.76
-404.37
-447.6
-439.15
-399.29
-373.58
-399.77
-381.41
-376.55
-373.14
-289.37
-357.04
-271.75
-257.32
-329.04
-309.57
-242.46
-294.67
-225.85
-222.98
-207.57
-173.98
-181.94
-170.21
-137.23
-161.41
-107.78
-79.78
-111.11
-85.62
-77.08
-18.05
11.39
-40.95
4.89
-23.2
-16.54
19.72
72.84
59.42
121.05
81.78
92.28
114.72
135.87
168.23
127.48
220.33
214.36
187.86
197.77
253.38
273.81
308.06
277.43
277.74
287.64
291.1
363.96
366.78
360.03
402.03
388.17
404.14
392.57
382.16
394.76
383.21
398.2
484.72
419.86
434.88
437.28
484.37
429.42
492.71
457.08
438.61
472.94
533.24
492.54
469.32
535.15
452.09
485.01
544.77
523.32
541.71
475.13
483.94
507.3
491.72
493.63
486.97
447.75
438.97
482.5
503.42
495.11
455.42
408.46
476.29
478.83
395.48
452.55
428.46
445.58
373.2
422.21
339.25
402.61
384.8
381.17
301.17
331.72
271.62
271.45
304.14
1737.04
245.64
288.1
257.97
281.89
183.06
224.77
194.1
166.08
197.57
113.9
172.26
169.68
106.05
63.49
83.42
32.16
72.56
29.96
36.13
-2.65
-47.79
7.81
-23.67
-49.22
-120.39
-101.52
-64.82
-146
-151.02
-110.94
-157.57
-223.52
-144.06
-156.07
-168.55
-220.78
-242.71
-277.15
-269.54
-321.16
-251.76
-315.4
-323.53
-333.48
-332.33
-359.01
-378.82
-346.05
-427.08
-375.87
-385.37
-427.87
-450.3
-383.41
-433.45
-422.57
-416.18
-489.57
-411.84
-444.94
-427.07
-435.73
-445.42
-460.73
-465
-537.59
-486.7
-529.2
-473.67
-449.33
-494.86
-473.75
-478.36
-485.13
-507.9
-504.27
-446.46
-513.51
-501.54
-472.87
-527.83
-472.96
-451.53
-445.44
-433.25
-424.61
-423.89
-472.61
-396.75
-463.92
-426.82
-417.7
-357.59
-419.1
-347.69
-372.28
-405.75
-349.49
-353.88
-310.63
-283.36
-298.88
-273.79
-326.44
-261.02
-245.65
-253.43
-228.35
-173.61
-227.78
-239.52
-164.83
-120.09
-185.48
-182.36
-88.66
-89.8
-112.88
-63.29
-108.6
-38.68
-1.92
-24.73
-21.99
-25.67
4.5
31.08
97.97
59.83
123.22
141.69
134.66
176.04
175.26
181.6
198
179.69
180.46
232.77
190.83
197.26
254.54
295.61
297.53
292.27
335.72
350.19
299.47
330.14
306.38
358.33
328.56
387.29
433.88
406
439.89
453.87
432.42
402.34
413.67
447.74
462.88
503.68
477.29
475.85
1943.92
520.94
488.33
513.91
538.13
513.34
459.08
450.69
539.66
522.41
524.43
486.11
522.75
519.59
523.18
509.34
457.76
505.7
530.55
514.78
450.08
454.2
461.88
483.45
431.1
495.99
482.22
463.34
462.88
465.95
365.71
445.73
370.69
339.1
366.22
381.29
335.43
365.26
331.8
305.85
349.68
253.96
313.3
311.84
313.35
206.57
233.61
206.38
241.33
243.31
201.15
166.19
188.7
190.34
171.13
130.93
88.66
82.05
103.12
48.61
6.91
39.96
41.26
2.06
-64.48
-49.99
-98.47
-21.74
-115.69
-136.64
-119.08
-144.97
-149.25
-147.44
-208.59
-225.81
-153.7
-244.06
-202.03
-228.6
-260.74
-236.14
-249.52
-333.86
-333.32
-333.92
-336.03
-289.98
-382.95
-370.09
-406.7
-421.86
-365.66
-422.89
-400.36
-388.18
-442.41
-421.48
-413.03
-466.65
-458.34
-505.94
-510.26
-480.52
-497.36
-528.7
-515.7
-461.67
-464.29
-488.52
-505.2
-447.56
-466.81
-516.45
-501.48
-497.4
-549.02
-507.04
-540.9
-462.79
-458.26
-493.74
-509.64
-467.89
-457.94
-494.21
-482.74
-423.19
-472.98
-491.64
-434.85
-451.58
-447.24
-430.44
-461.45
-409.98
-433.63
-363
-366.84
-411.73
-346.63
-301.7
-368.84
-283.89
-328.65
-309.55
-288.57
-297.02
-292.65
-242.26
-287.2
-266.37
-175.2
-192.92
-156.92
-204.37
-172.42
-133.03
-161.72
-125.9
-116.97
-127.23
-103.14
-61.77
-5.21
-24.39
3.84
1459.3
47.8
-11.32
96.95
89.34
112.24
95.2
118.97
91.28
142.39
117.19
170.49
158.19
154.38
173.54
234.69
257.27
286.75
213.84
257.49
281.13
330.58
345.74
296.69
324.64
297.61
309.99
335.03
361.96
379.36
363.48
356.98
452.73
398.65
390.86
419.76
458.7
411.72
419.75
422.29
447.96
452.49
483.73
435.63
483.73
444.22
522.88
448.88
477.07
507.66
502.64
469.05
466.43
457.14
461.75
500.68
479.08
477.06
539.29
489.92
464.16
522.05
471.45
465.88
486.3
508.01
457.89
402.2
467.65
439.4
426.95
417.32
402.7
369.96
386.13
366.55
421.92
411.6
392.7
309.84
374.28
344.91
275.67
276.24
255.4
291.09
293.04
201.84
203.89
214.48
251.18
236.37
215.47
124.24
119.6
100.63
156.58
71.98
98.91
64.66
29.8
54.77
7.84
-2.28
9.27
-4.5
-73.79
-35.91
-13.84
-89.77
-61.67
-106.72
-125
-176.64
-138.15
-177.98
-213.97
-187.9
-231.07
-246.04
-229.76
-228.3
-309.9
-254.12
-293.1
-269.19
-318.05
-303.38
-382.61
-298.06
-392.84
-323.5
-332.79
-349.1
-361.13
-369.7
-429.96
-440.54
-429.07
-388.89
-489.81
-432.98
-441.14
-463.55
-501.11
-445.78
-466.47
-459.61
-515.26
-489.79
-455.32
-529.39
-529.2
-533.27
-496.99
-514.95
-474.19
-493.79
-518.14
-455.89
-541.94
-449.55
-526.3
-478.65
-453.86
-447.05
-525.61
985.04
-432.22
-428.41
-471.37
-444.97
-456.22
-462.29
-422.02
-426.57
-421.92
-451.34
-429.15
-422.18
-417.68
-346.88
-377.62
-369.36
-339.51
-294.76
-307.88
-298.14
-294.22
-313.09
-238.77
-234.04
-187.87
-224.94
-254.74
-180.09
-127.16
-203.74
-192.94
-135.67
-78.42
-152.04
-61
-33.86
-50.92
-52.26
-71.13
23.79
45.72
3.9
68.09
7.63
108.5
36.19
104.91
97.09
156.45
179.19
157.89
210.98
165.85
157.39
242.45
212.17
244.24
251.08
290.2
320.63
282.89
254.34
353.84
368.21
330.94
384.16
332.33
316.59
356.25
362.01
427
396.71
403.73
465.4
465.05
446.71
429.49
462.74
482.77
424.24
448.05
438.49
490.83
478.07
455.23
506.32
541.34
463.27
488.23
483.18
487.52
479.19
520.02
532.81
548.84
515.05
457.54
480.69
514.32
469.25
502.62
522.54
494.5
430.29
442.44
477.76
433.33
433.12
419.18
405.93
441.7
435.85
459.59
442.9
398.3
386.49
338.22
382.07
374.05
368.22
314.33
321.17
261.03
332.44
248.14
323.1
243.13
204.42
235.45
264.82
228.63
234.45
169.25
126.78
118.07
106
127.82
103.7
75.8
107.83
109.19
-0.21
21.59
51.67
-16.49
-39.65
2.78
-65.07
-38.93
-41.98
-52.44
-151.07
-130.7
-164.61
-171.59
-193.88
-139.15
-229.72
-200.38
-198.56
-212.38
-209.59
-240
-240.52
-290.18
1170.74
-346.06
-299.46
-295.48
-370.38
-379.46
-376.36
-384.88
-340.74
-384.78
-392.13
-438.51
-427.52
-444.35
-428.5
-412.14
-460.31
-459.54
-445.86
-416.99
-465.73
-457.24
-444.62
-521.87
-472.33
-481.92
-483.46
-492.57
-496.42
-532.23
-497.05
-541.8
-481.66
-528.37
-471.62
-528.42
-508.8
-503.97
-534.49
-461.25
-483.24
-504.78
-439.35
-488.65
-461.75
-458.72
-470.96
-409.98
-409.62
-409.01
-377.76
-367.1
-384.39
-362.31
-411.48
-411.26
-328.13
-382.69
-333.32
-356.57
-331.58
-333.88
-319.32
-248.46
-258.2
-279.86
-297.81
-190.09
-187.92
-216.36
-187.5
-189.78
-153.45
-107.75
-101.73
-135.95
-91.49
-54.84
-76.55
-101.26
-61.04
-23.48
-9.15
-17.44
-25.97
13.16
65.2
41.92
77.31
59.44
102.95
108.25
170.4
165.45
197.27
170.44
209.55
248.94
229.96
199.4
285.79
252.45
280.82
261.63
274.48
282.27
355.77
302.03
305.12
324.32
338.45
406.8
407.9
431.27
381.43
447.54
427.98
384.73
452.02
418.49
409.45
457.92
452.04
458.68
501.96
447.17
456.73
519.24
493.19
455.53
498.25
467.15
498.94
455.92
537.85
460.79
504.29
540.43
451.94
537.73
465.77
477.19
489.01
456.59
497.7
509.67
519.28
450.31
452.65
442.69
438.57
462.72
456.9
399.46
458.38
408.41
434.38
365.13
407.07
359.97
413.32
398.11
364.74
311.64
337.48
313.67
297.91
1808.45
278.92
292.26
230.91
211
185.03
183.44
203.47
155.5
191.72
190.18
160.42
77.26
72.91
99.73
126.48
83.36
84.52
25.87
70.11
-9.29
-1.87
-15.83
-65.97
-61.18
-59.88
-37.93
-71.4
-83.46
-102.3
-114.08
-120.25
-214.76
-150.26
-157.04
-164.12
-181.2
-200.27
-264.26
-313.11
-312.74
-264.65
-276.28
-315.7
-341.9
-294.03
-317.68
-357.52
-335.92
-349.88
-436.95
-365.04
-402.72
-434.46
-462.45
-406.98
-398.55
-421.09
-477.25
-451.35
-467.25
-428.11
-482.52
-520.94
-484.31
-479.47
-455.92
-535.75
-503.83
-462.18
-500.09
-541.81
-518.92
-533.3
-490.21
-540.62
-539.46
-466.89
-464.2
-532.69
-532.87
-448.33
-504.32
-479.77
-428.22
-475.87
-409.88
-416.97
-462.98
-459.45
-446.86
-438.14
-368.37
-360.2
-374.15
-365.62
-364.47
-343.98
-407.61
-355.66
-310.55
-376.43
-283.28
-266.64
-339.63
-286.67
-272.72
-215.64
-194.08
-209.22
-228.05
-207.37
-151.29
-122.51
-118.24
-172.25
-91.92
-131.17
-94.12
-108.57
-42.85
-71.45
-2.65
-17.7
20.18
14.02
13.62
53.93
52.5
29.81
65.35
51.18
158.24
161.43
184.15
164.47
133.78
154.12
213.97
247.04
187.36
191.1
245.37
299.77
295.68
258.27
344.6
324.16
303.62
337.14
357.05
379.67
399.56
405.56
348.29
416.8
450.15
448.96
415.58
438
424.77
449.9
407.64
420.78
424.27
476.31
430.28
1943.56
432.8
452.99
472.92
460.49
479.26
544.84
486.9
525.37
466.59
509.42
453.27
547.64
453.9
511.59
485.43
483.92
441.39
446.44
528.57
510.59
444.85
447.35
417.66
495.76
428.67
396.94
461.15
398.19
451.95
372.69
384.68
379.99
416.78
360.27
375.34
330.65
330.15
356.28
281.37
283.93
248.7
325.69
303.24
242
196.08
185.65
265.1
246.4
171.55
218.72
185.68
141.85
81.94
78.69
66.45
108.9
102.98
59.47
34.13
45.54
-20.96
-25.12
29.26
-17.25
-43.76
-77.43
-41.79
-120.41
-149.34
-127.32
-126.98
-163.31
-119.02
-193.67
-229.91
-209.75
-235.26
-239.81
-233.42
-223.95
-228.05
-239.26
-339.11
-347.19
-274.63
-318.68
-375.59
-332.83
-315.38
-379.14
-403.83
-432.45
-420.76
-365.86
-430.48
-426.03
-389.53
-482.49
-460.76
-442.55
-465.24
-439.99
-467.79
-524.07
-466.39
-490.89
-510.58
-480.55
-481.06
-456.28
-517.22
-478.46
-520.28
-491.99
-509.11
-496.81
-476.21
-526.85
-484.26
-511.32
-527.38
-460.1
-435.69
-492.9
-440.27
-472.2
-488.42
-432.05
-492.66
-444.81
-423.37
-410.49
-421.79
-416.38
-405.91
-436.75
-347.78
-413.33
-403.26
-383.5
-333.65
-292.55
-314.6
-351.12
-311.62
-263.08
-302.4
-218.31
-269.8
-271.03
-189.86
-173.31
-163.18
-195.82
-140.72
-171.84
-130.77
-159.68
-148.18
-78.76
-36.82
-95.46
-70.68
-44.98
-45.45
1544.45
28.72
59.1
55.39
72.81
26.36
63.42
129.41
145.71
149.25
188.85
152.49
173.11
235.75
171.61
257.42
266.36
263.76
276.84
298.49
284.67
267.01
327.65
326.16
370.17
370.37
399.09
344.1
401.15
401.92
388.65
445.66
429.36
391.47
402.17
421.96
440.08
443.32
497.41
471.72
506.11
455.31
448.52
456.64
438.31
461.08
451.31
525.48
541
544.53
452.48
521.72
452.93
453.7
506.86
488.07
521.1
544.36
476.59
502.18
520.53
507.16
477.09
478.59
478.12
469.55
440.34
454.52
446.76
476.14
453.88
429.61
393.81
440.69
408.67
343.23
387.49
390.34
308.37
353.4
343.87
309.22
350.09
345.61
307.59
252.81
211.26
238.29
238.9
184.79
201.14
203.49
193.47
194.39
123.28
125.52
139.42
70.07
104.91
118.53
44.39
13.61
59.82
37.71
29.79
-44.28
-66.95
-71.08
-21.06
-75.69
-49.45
-64.02
-81.42
-95.7
-109.42
-192.96
-152.76
-146.97
-180.84
-255.14
-243.32
-203.86
-213.51
-254.96
-283.58
-254.15
-324.42
-277.32
-293.25
-337.43
-363.21
-358.21
-364.29
-419.19
-416.3
-416.27
-394.98
-429.89
-400.08
-474.74
-407.19
-407.56
-425.09
-457.8
-483.79
-476.1
-469.45
-499.08
-514.39
-520.34
-485.85
-521.42
-520.89
-469.29
-510.47
-488.56
-474.08
-463.37
-454.09
-531.24
-538.75
-505.09
-537.88
-505.64
-529.77
-494.98
-524.96
978.22
-479.71
-491.18
-482.76
-495.2
-442.45
-485.9
-397.6
-426.06
-450.92
-384.24
-385.8
-358.1
-329.29
-330.6
-339.81
-383.85
-285.27
-302.73
-319.23
-282.34
-320.84
-313.02
-312.49
-279.63
-195.22
-196.93
-247.62
-194.3
-156.92
-164.83
-131.28
-175.33
-84.39
-158.98
-128.38
-121.78
-21.78
-24.17
-63.66
-64.69
7.09
-13.05
67.62
4.6
88.08
42.96
122.6
71.45
82.94
79.39
183.43
206.75
143.9
191.44
242.66
167.14
262.19
258.06
279.03
224.62
248.43
254.96
305.63
351.29
347.11
339.13
343.83
328.3
354.08
380.17
341.99
417.21
398.04
369.89
439.43
414.03
468.65
442.03
406.14
454.07
483.49
477.97
426.29
478.02
455.96
518.13
532.2
503.65
476.58
539.67
485.25
503.98
506.34
539.61
520.71
524.97
502.76
544.99
509.73
494.41
457.46
498.98
509.98
471.08
422.16
443.86
435.99
414.64
464.25
419.12
415.67
412.86
456.81
367.84
378.16
345.97
355.52
410.55
407.75
362.01
342.88
365.49
339.8
295.34
322.13
268.95
279.18
231.49
220.73
261.94
232.21
176.04
173.59
171.94
163.22
169.17
108.1
93.43
99.37
48.75
94.54
91.7
1.56
-2.3
-13.11
27.96
-42.97
7.38
-5.12
-96.12
-124.17
-117
-151.64
-116
-119.45
-171.61
-178.59
-174.97
-163.76
-162.39
-257.16
-250.53
-241.89
-230.1
-275.5
-249.69
1214.39
-310.92
-292.73
-328.46
-394.02
-383.23
-361.41
-394.25
-407.5
-430.11
-380.51
-452.25
-392.11
-431.01
-397.22
-472.35
-497.43
-477.28
-436.68
-464.81
-490
-494.81
-469.73
-472.25
-482.65
-541.57
-456.97
-507.99
-478.01
-449.49
-505.34
-452.44
-541.58
-546.56
-449.71
-525.88
-514.46
-518.01
-484.54
-499.76
-444.87
-445.55
-507
-440.93
-413.73
-424.09
-449.47
-409.74
-464.27
-425.68
-419.12
-454.32
-433.62
-352.86
-409.72
-387.02
-331.5
-383.41
-388.49
-364.38
-359.41
-257.36
-336.14
-255.02
-295.77
-263.73
-278.62
-216.38
-192.77
-203.96
-229.38
-196.5
-185.14
-161.73
-143.04
-80.45
-132.31
-48.02
-86.97
-70.15
-50.16
16.79
27.16
52.7
68.71
-11.98
17.36
29.52
105.6
63.89
103.33
120.32
96.53
170.86
166.03
132.74
183.21
226.38
192.52
187.69
276.1
238.29
268.36
319.72
277.5
279.81
302.63
336.17
338.58
336.52
378.5
410.81
353.25
388.43
422.95
380.99
433.75
475.8
433.89
407.5
480.82
421.49
430.97
438.39
478.98
450.59
500.17
528.31
477.88
483.98
476.63
464.28
483.04
534.58
540.27
535.61
502.36
453.9
487.02
491.76
458.06
500.38
472
512.57
444.17
464.13
437.01
510.74
449.9
501.52
416.33
397.69
405.77
382.2
411.63
370.73
388.73
360.03
420.19
336.97
394.5
306.5
336.73
319.75
366.54
340.73
1822.68
299.8
220.92
230.95
281.25
276.06
259.49
195.61
153.83
180.06
112.68
168.25
103.15
101.14
137.6
126.06
66.57
83.69
38.1
10.54
56.05
32.89
-61.51
-23.02
-86.69
-83.14
-125.48
-81.82
-141.5
-135.23
-161.59
-169.55
-168.34
-145.96
-172.03
-238.39
-185.79
-189.29
-224.81
-273.89
-310.09
-263.04
-303.29
-357.71
-274.52
-375.47
-307.99
-350.94
-413.39
-378.29
-339.89
-430.61
-441.19
-407.86
-423.58
-379.22
-411.35
-409.25
-493.4
-463.27
-470
-517.27
-494.97
-501.87
-500.32
-469.23
-489.67
-443.89
-466.15
-465.7
-469.22
-520.74
-513.8
-492.95
-546.18
-464.9
-478.4
-475.33
-454.21
-481.62
-482.33
-459.36
-475.75
-453.89
-502.19
-495.46
-424.66
-486.6
-485.25
-423.04
-441.21
-381.05
-429.93
-385.31
-434.63
-424.81
-384.39
-414.45
-321.22
-332.7
-338.31
-326.55
-337.54
-348.24
-311.17
-257.22
-268.54
-256.63
-219.23
-236.49
-229.28
-204.38
-158.69
-139.52
-166.98
-143.09
-131.58
-125.72
-95.73
-71.1
-61.63
-75.49
-43.2
-70.04
-50.09
29.84
28.72
58.61
37.06
77.7
122.63
73.16
77.23
136.62
93.89
123.43
158.98
135.38
221.97
178.42
198.98
220.38
274.77
232.29
265.18
235
283.7
263.38
327.51
342.49
345.31
330.46
337.29
414.7
418.59
367.09
395.28
363.03
456.22
425.57
476.95
471.08
417.34
470.41
476.81
424.97
488.9
2001.06
494.25
453.13
486.32
484.63
481
482.15
533.92
525.1
480.84
541.91
513.4
491.7
511.82
523.52
475.39
457.21
488.14
520.07
466.89
465.04
521.21
451.9
502.1
448.08
461.29
491.52
438.86
389.97
392.98
449.08
356.84
404.02
397.41
396.19
368.61
311.55
305.62
307.98
368.71
297.57
276.67
307.99
264.83
305.92
266.48
246.47
214.73
255.36
241.74
148.41
213.86
112.3
169.85
120.3
120.69
56.86
124.5
46.79
75.67
50.2
40.27
-5.29
-40.82
-43.8
5.8
-40.58
-67.68
-132.53
-58.44
-123.59
-108.22
-145.33
-151.44
-197.3
-167.62
-188.26
-263.74
-243.83
-284.87
-242.2
-248.7
-297.15
-321.11
-320.56
-296.53
-306.66
-307.17
-400.17
-378.28
-367.84
-428.34
-427.01
-444.61
-406.88
-410.54
-460.12
-452.85
-408.13
-430.86
-446.95
-428.95
-481.22
-446.84
-435.64
-447.33
-486.16
-463.62
-484.34
-466.26
-507.24
-542.06
-503.31
-508.55
-478.82
-456.78
-530.08
-547.03
-510.84
-516.29
-535.96
-511.49
-475.98
-445.2
-519.17
-521.62
-512.17
-492.59
-458.66
-423.66
-422.99
-434.85
-436.76
-434.04
-459.22
-363
-387.81
-435.59
-334.27
-402.74
-324.74
-350.72
-292.42
-280.26
-309.71
-334.69
-306.54
-236.35
-286.51
-233.23
-262.28
-179.14
-229.05
-210.98
-213.26
-186.06
-150.79
-176.21
-76.83
-112.1
-121.21
-100.89
-72.42
-15.63
-1.01
2.89
6.02
1522.46
44.48
54.45
62.64
85.25
38.4
81.2
109.29
108.63
176.09
181.8
130.94
160.59
169.55
238.83
235.28
241.76
212
259.71
318.9
275.55
255.18
344.52
371.98
370.97
394.53
374.04
408.71
420.99
429.49
434.76
377.03
438.85
378.17
444.58
465.24
468.57
455.67
498.32
470.29
507.9
435.3
514.68
435.76
521.77
517.29
477.81
447.79
511.01
532.73
473.65
522.79
503.29
458.54
528.93
504.04
496.73
455.13
443.45
526.51
460.98
470.75
502.95
499.28
441.49
495.02
412.32
454.83
464.44
449.88
388.49
378.88
456.39
421.17
373.77
409.28
397.47
399.68
314.57
383.84
316.62
355.07
323.9
312.1
292.54
285.86
246.7
203.69
274.67
209.17
216.11
161.68
196.62
136.3
145.43
170.98
128.03
86.85
111.01
114.88
19.33
27.92
14.03
-6.38
-48.06
-16.38
-16.17
-57.01
-29.2
-114.94
-105.92
-107.67
-84.43
-174.83
-125.61
-194.67
-176.76
-232.12
-177.76
-208.19
-270.97
-246.43
-240.27
-314.41
-257.4
-320.3
-329.83
-329.66
-336.76
-305.14
-391.08
-357.04
-420.67
-362.85
-363.34
-433.04
-450.38
-395.54
-481.17
-392.32
-400.33
-406.15
-459.62
-437.61
-494.65
-437.77
-469.56
-497.85
-498.07
-458.29
-518.36
-450.67
-450.89
-529.09
-486.85
-457.06
-458.4
-507.89
-534.72
-497.81
-493.83
-458.64
-527.19
-466.82
-525.86
-504.22
1002.12
-509.67
-474.76
-488.23
-455.27
-436.65
-432.71
-436.33
-412.69
-402.38
-381.82
-403.46
-407.89
-390.93
-386.45
-350.83
-379.63
-299.32
-325.48
-291.46
-302.11
-288.16
-285.86
-284.78
-265.84
-199.45
-272.02
-174.59
-206.49
-206.32
-174.15
-128.05
-138.11
-102.96
-70.97
-146.63
-94.53
-59.69
-90.76
-73.52
-1.2
-57.3
21.96
-6.52
3.75
64.27
42.87
55.79
96.59
140.42
164.01
127.34
104.95
156.78
180.37
206.63
246.11
267.67
198.32
259.95
300.75
304.32
284.47
326.82
302.72
333.11
328.85
304.53
325.64
377.22
360.95
339.67
429.21
414.97
381.35
429.96
429.61
487.24
419.21
411.3
459.56
494.05
446.74
518.39
523.79
451.97
452.08
480.88
512.74
451.06
502.71
483.68
540.9
531.05
493.86
532.98
496.89
458.36
519.88
538.37
461.53
463.41
459.01
506.78
454.99
521.2
474.05
483.37
408.09
429.19
392.38
421.27
379.46
400.66
438.94
387.34
376.67
410.51
417.6
409.61
310.97
337.87
375.01
335.45
310.31
330.7
234.36
285.43
212.52
269.06
213.51
181.79
200.93
238.55
216.27
171.49
125.79
156.55
127.38
120.26
42.67
56.24
53.61
74.37
34.85
-4.26
20.64
-18.97
6.39
-76.47
-35.78
-103.41
-105.67
-136.25
-108.95
-114.2
-180.34
-205.42
-159.85
-187.86
-253.98
-245.53
-233.92
-286.73
-217.23
-316.79
-278.94
1173.83
-333
-280.85
-333.22
-338.47
-324.84
-395.8
-402.82
-395.99
-389.8
-425.37
-435.99
-436.04
-429.52
-449.62
-466.57
-475.64
-433.64
-493.96
-458.87
-442.91
-515.06
-498.25
-457.17
-471.64
-516.46
-483.22
-480.36
-476.24
-496.87
-543.6
-471.42
-453.7
-527.21
-529.45
-468.52
-487.87
-469.6
-506.41
-453.16
-436.59
-519.66
-450.95
-451.11
-454.77
-436.51
-480.04
-482.11
-387.93
-442.72
-468.42
-397.41
-397.89
-373.83
-350.28
-423.08
-313.77
-357.79
-355.85
-285.01
-323.86
-350.51
-299.58
-250.71
-239.8
-298.53
-286.11
-232.74
-241.59
-191.1
-157.79
-189.42
-117.13
-160.58
-168.2
-102.82
-120.36
-59.14
-79.54
-97.21
-68.57
-25.62
-48.38
-24.77
35.76
14.85
7.29
69.21
40.29
42.33
65.63
77.48
155.44
169.22
175.58
200.54
148.7
242.77
202.02
236.05
222.89
290.82
285.14
267.82
279.87
259.14
307.07
374.35
378.03
373.34
354.06
387.46
364.53
350.01
433.61
394.75
427.13
446.72
399.34
405.61
452.8
448.76
438.24
486.35
475.53
445.56
449.93
473.19
530.54
444.18
462.45
541.67
449.85
516.19
507.9
548.19
487.96
464.42
510.59
507.49
456.67
477.25
523.41
469.57
528.86
493.18
424.72
505.03
470.23
414.98
436.43
449.46
477.07
442
381.23
363.1
437.58
431.41
341.99
414.51
317.87
404.73
350.59
300.19
279.92
297.61
331.11
1763.54
261.96
298.94
219.17
259.36
235.45
182.95
175.15
209.58
168.93
168.72
141.08
74.08
145.59
126.34
59.45
102.25
43.06
-9.84
58.28
26.31
-3.65
-34.08
-58.71
-89.57
-95.15
-119.56
-75.73
-95.39
-162.19
-107.65
-186.83
-186.19
-150.62
-191.93
-213.82
-192.9
-201.35
-282.42
-265.12
-292.33
-262.66
-284.07
-269.01
-374.65
-336.57
-319.8
-371.04
-384.7
-421.98
-348.3
-412.38
-374.89
-417.42
-470.34
-437.16
-460.49
-473.66
-477.04
-415.95
-452.29
-479.33
-453.89
-495.93
-462.03
-522.58
-510.76
-504.37
-528.11
-515.95
-458
-533.61
-481.78
-463.55
-515.35
-473.83
-534.58
-521.71
-443.18
-452.39
-523.81
-436.54
-475.68
-487.84
-468.61
-499.81
-474.99
-457.19
-487.86
-388.67
-417.83
-451.4
-411.76
-398.23
-418.21
-431.36
-346.28
-369.25
-376.86
-331.72
-309.97
-337.3
-334.99
-274.88
-293.55
-310.95
-252.18
-284.43
-238.43
-211.26
-162.4
-179.3
-218.87
-119.62
-129.82
-164.93
-122.99
-109.13
-102.78
-42.04
-48.14
-10.39
-8.23
-43.76
10.08
45.46
-3.41
58.37
39.87
99.06
99.27
140.19
99.73
141.66
135.39
169.77
188.6
194.83
231.29
203.18
252.42
214.18
285.26
276.74
256.66
262.23
296.16
340.76
308.75
321.31
395.83
330.4
357.26
393.87
367.22
375.14
399.29
452.88
441.29
475.19
407.02
400.45
432.41
505.68
465.09
449.91
1968.4
430.5
476.86
523.42
536.52
462
502.82
503.11
489.02
535.51
470.97
469.17
519.49
507.63
528.34
502.11
475.33
470.62
485.32
508.68
478.24
473.98
504.17
509.87
413.07
419.27
451.23
391.93
420.81
418.96
453.57
400.21
380.06
389.19
379.7
343.56
367.77
341.66
363.24
332.03
338.57
337.16
293.63
228.67
274.1
241.57
216.72
272.59
207.63
175.92
229.25
195.47
117.85
186.86
110.43
65.5
61.22
127.77
89.38
69.49
30.17
-26.06
42.37
-15.58
24.03
-48.08
-46.59
-18.09
-99.08
-138.03
-100.21
-157.67
-180.66
-162.64
-207.1
-220.54
-221.7
-235.56
-253.53
-281.14
-289.9
-270.21
-253.97
-327.44
-268.46
-356.2
-366.02
-372.11
-341.39
-335.51
-399.81
-406.54
-363.24
-411.52
-360.9
-367.21
-379.97
-477.53
-472.88
-444.62
-419.73
-487.32
-449.22
-480.71
-482.89
-444.6
-464.98
-520.6
-502.31
-499.41
-533.5
-449.65
-500.35
-537.15
-533.07
-520.19
-539.03
-512.36
-487.83
-465.83
-457.41
-462.68
-454.22
-463.1
-516.85
-506.67
-486.62
-434.31
-498.47
-491.86
-438.97
-407.64
-469.21
-399.67
-440.34
-385.47
-354.56
-430.28
-425.86
-367.15
-342.36
-370.17
-366.02
-349.81
-343.23
-262.18
-315.28
-261.25
-217.52
-214.87
-192.36
-235.62
-249.02
-151.25
-206.01
-137.89
-152.56
-133.74
-118.4
-75.07
-88.18
-78.04
-75.76
-56.51
-14.31
-58.76
13.09
1499.47
25.54
-12.83
72.45
90.83
32.18
110.05
120.32
98.23
135.84
129.16
123.64
213.36
155.52
202.05
269.6
239.04
237.34
255.23
306.72
270.93
268.97
273.02
326.39
294.21
308.47
350.29
356.46
386.99
417.78
412.97
417.65
438.36
454.6
418.92
480.32
395.08
474.24
431.84
420.89
502.45
449.79
513.56
452.01
464.69
450.68
477.5
459.22
476.02
470.27
502.56
498.18
460.5
520.43
484.72
454.64
450.38
459.56
537.66
503.83
481.6
443.56
435.93
491.49
441.38
421.45
461.28
487.52
416.51
390.31
468.43
404
389.08
384.93
431.81
356.24
345.24
411.54
367.43
389.68
298.16
276.71
285.86
290.19
271.29
282.49
218.87
223.4
215.03
171.5
203.12
211.12
132.96
192.72
99.69
156.42
76.55
67.4
60.5
71.04
76.28
67.98
-9.27
-5.16
-33.88
-65.11
-82.3
-16.17
-36.06
-99.52
-112.46
-80.59
-156.77
-178.09
-145.87
-213.32
-225.18
-196.3
-231.96
-205.93
-218.11
-289.35
-227.39
-282.24
-306.02
-314.1
-306.77
-296.63
-311.07
-320.33
-394.21
-319.27
-390.29
-361.92
-381.85
-382.15
-420.59
-381.44
-446.04
-390.33
-456.32
-431.14
-502.5
-419.71
-460.29
-462.24
-511.27
-485.87
-493.53
-538.77
-540.41
-540.24
-465.81
-515.86
-481.21
-539.01
-471.63
-511.18
-453.23
-452.3
-533
-496.55
-535.92
-526.74
-510.93
-517.56
-476.55
1031.72
-458.22
-473.78
-434.88
-437.11
-448.42
-479.84
-459.5
-425.65
-399.87
-408.58
-413.89
-351.5
-343.28
-344.03
-354.55
-307.93
-380.8
-302.54
-303.32
-293.81
-269.31
-247.69
-211.6
-244.69
-189.87
-201.33
-227.19
-228.89
-133.07
-197.95
-126.32
-112.09
-135.25
-60.68
-40.88
-83.85
-52.51
-27.01
-50.07
-43.52
-14.53
-21.94
78.8
6.36
51.32
74.42
61.02
140.61
108.02
85.82
101.73
155.31
162.23
189.71
193.56
228.64
227.56
256.67
250.19
299.99
267.76
318.67
276.51
304.61
314.7
314.29
333.98
333.77
401.04
419.43
429.85
404.13
450.27
410.52
395.77
406.85
427.16
484.47
498.32
473.24
431.01
446.19
485.37
517.31
453.8
512.08
531.13
498.87
480.11
479.87
492.55
467.64
484.12
480.38
511.44
508.09
520.93
479.88
494.94
459.47
474.72
478.37
459.88
453.63
490.28
440.05
425.18
480.71
483.53
404.71
435.19
413.19
409.76
440.19
375.99
399.53
355.12
411.39
397.12
320.82
360.96
332.17
316.78
342.32
244.47
231.14
294.79
208.51
204.32
179.23
173.44
183.29
135.26
191.91
123.9
131.7
106.8
131.77
60.41
116.24
42.75
17.81
26.5
6.49
15.37
-48.67
-17.21
-83.39
-13.2
-117.62
-102.2
-125.7
-155.82
-135.43
-188.52
-183.17
-153.89
-226.83
-169.84
-171.7
-184.73
-276.87
-292.45
-260.51
-250.7
1243.98
-315.2
-341.45
-346.99
-327.99
-328.4
-338.06
-380.68
-384.97
-393.88
-394.18
-360.24
-392.34
-394.87
-402.53
-469.7
-472.68
-443.48
-487.35
-434.29
-520.38
-496.65
-525.15
-527.71
-506.27
-453.15
-511.1
-455.43
-538.28
-545.3
-478.2
-460.47
-545.46
-503.56
-524.57
-506.53
-476.92
-524.5
-518.23
-505.34
-470.65
-511.32
-439.55
-481.54
-418.15
-436.67
-490.68
-446.15
-462.78
-402.23
-450.89
-412.2
-410.38
-369.38
-430.86
-418.09
-376.6
-381.74
-308.03
-343.65
-356.2
-313.55
-259.84
-248.29
-262.05
-281.51
-277.96
-253.66
-234.8
-207.83
-183.05
-183.03
-198.91
-119.03
-124.94
-127.73
-59.9
-96.28
-42.16
-109.48
-90.23
-52.6
-68.68
-2.03
-17.92
46.54
19.1
59.94
84.49
63.22
88.24
64.76
136.65
143.9
190.9
152.97
162.94
201.69
203.64
223.05
216.28
287.58
293.77
280.48
305.99
351.15
283.12
367.13
388.43
340.53
313.82
415.15
423.18
390.74
360.64
397.12
399.57
378.61
481.73
440.99
483.17
499.07
450.51
454.36
426.86
492.81
431.37
471.01
508.07
508.01
450.91
471.2
518.55
494.88
466.07
486.68
471.41
480.35
535.4
531.26
515.76
541.38
477.24
468.81
461.88
461.34
502.71
504.49
476.34
444.8
498.12
398.84
468.41
403.19
403.91
382.75
424.93
385.67
430.37
388.05
361.17
343.23
371.37
356.63
337.32
322.38
295.91
1809.74
273.11
299.58
298.24
196.96
227.83
197.15
194.13
197.06
130.19
114.9
170.91
120.51
127.82
135.55
44.32
43.93
38.2
-1.48
43.71
-21.83
-23.67
-9
-78.36
-74.42
-35.79
-83.13
-127.41
-135.74
-119.52
-164.41
-167.78
-147.66
-159.96
-231.77
-189.32
-238.02
-274.01
-271.22
-258.32
-236.08
-282.5
-254.09
-287.07
-309.58
-291.66
-343.27
-326.64
-361.28
-388.65
-436.83
-370.9
-451.38
-392.9
-438.97
-392.02
-486.64
-475.82
-498.93
-449.76
-423.98
-474.97
-463.63
-457.51
-497.98
-454.11
-457.47
-514.46
-519.89
-483.35
-541.06
-480.07
-483.88
-496.32
-507.04
-542.73
-462.74
-451.06
-481.07
-536.32
-530.51
-494.9
-520.57
-447.63
-478.32
-427.12
-436.91
-499.17
-495.15
-415.32
-482.14
-468.9
-409.7
-382.17
-419.69
-383.95
-337.62
-407.63
-362.13
-374.61
-387.97
-362.57
-284.89
-292.62
-337.7
-314.65
-228.51
-290.63
-221.57
-233.95
-257.63
-177.77
-164.73
-124.02
-168.68
-183.56
-148.05
-75.91
-67.75
-67.13
-75.49
-22.07
-19.06
-48.33
-38.56
27.64
25.23
50.99
59.02
67.28
84.53
88.6
104.24
82.79
152.22
122.99
143.93
163.93
192.91
251.28
237.56
244.44
219.37
227.54
231.2
273.75
266.62
313.39
371.57
311.75
320.43
388.57
415.97
394.15
404.68
353.93
379.76
415.14
454.96
411.59
391.9
471.18
462.37
491.9
442.66
506.24
424.77
2007.74
478.11
481.62
451.14
539.85
453.47
545.06
544.27
547.79
516.87
457.4
502.18
464.19
501.84
502.09
524.1
488.7
440.84
461.12
517.52
431.87
475.3
480.11
456.87
455.46
464.1
407.6
450.85
471.05
443.58
441.94
371.99
426.43
427.34
362.8
401.61
400.54
350.61
311.54
289.7
279.62
254.54
266.68
242.79
269.02
198.22
226.51
177.53
246.68
153.86
162.04
196.57
105.81
111.54
134.16
133.78
66.73
27.38
59.64
83.41
24.05
-2.54
-34.69
18.26
14.34
-78.31
-39.45
-32.2
-42.83
-88.43
-73.92
-159.4
-137.23
-117.34
-169.3
-208.14
-193.72
-270.55
-277.96
-240.92
-302.67
-281.64
-302.21
-266.55
-313.15
-316.96
-285.47
-372.25
-370.01
-346.33
-351.76
-344.92
-353.81
-404.65
-415.81
-422.64
-426.15
-436.59
-449.19
-452.59
-447.96
-509.35
-515.62
-449.6
-511.68
-510.44
-514.94
-516.19
-539.84
-447.52
-479.45
-466.11
-460.3
-486.99
-491.39
-473.3
-545.09
-517.37
-492.59
-525.96
-479.64
-513.91
-505.77
-448.7
-473.57
-517.42
-499.85
-460.03
-409.37
-464.31
-492.02
-394.71
-418.61
-377.91
-373.06
-352.92
-365.7
-358.26
-385.56
-326.77
-319.46
-314.84
-370.01
-344.78
-259.96
-308.71
-328.28
-223.18
-304.58
-277.19
-252.09
-198.81
-239.78
-190.9
-129.35
-194.16
-117.98
-162.08
-72.62
-152.77
-129
-82.4
-54.95
-10.77
-17.5
3.45
7.98
38.21
17.82
12.53
55.83
90.29
96.54
89.45
90.47
126.08
105.58
146.12
176.65
226.63
177.42
209.1
193.01
247.51
220.86
238.02
332.17
294.03
330.42
310.91
357.53
302.05
400.24
341.89
361.78
405.41
361.47
414.88
433.16
421.8
453.68
394.18
485.35
415.6
415.93
505.27
444.59
500.99
483.88
520.11
502.93
517.11
524.92
524.45
446.96
487
519.07
472.11
507.16
477.24
510.98
493.62
537.91
504.77
504.5
488.06
493.57
444.09
513.9
508.33
491.15
414.17
472.96
409.33
398.73
457.83
449.98
435.85
378.55
413.35
430.22
434.1
410.41
384.7
377.24
311.77
300.78
352.11
287.56
248.46
258.2
293.21
245.32
248.03
249.39
263.7
202.67
233.85
161.06
207.48
176.74
128.53
74.35
130.55
124.07
109.6
34.54
4.84
4.78
-17.8
22.19
-28.59
-18.02
-53.82
-15.09
-94.25
-99.59
-137.74
-80.14
-176.39
-171.11
-153.98
-147.51
-182.13
-159.54
-236.39
-192.28
-241.23
-293.65
-271.1
-267.78
-312.42
-330.91
-350.51
-347.67
-308.94
-375.31
-324.91
-360.86
-387.09
-368.47
-415.18
-430.65
-406.4
-407.41
-414.47
-433.68
-461.12
-501.25
-488.74
-495.89
-508.58
-433.56
-458.99
-483.22
-485.9
-482.17
-474.45
-511.86
-488.81
-454.06
-514.37
-496.13
-547.5
-485.33
-454.1
-455.41
-452.5
-456.21
-513.02
-450.53
-481.91
-513.2
1029.41
-491.37
-420.91
-494.47
-443.78
-409.6
-472.16
-394.94
-460.74
-376.46
-429.42
-444.21
-386.3
-356.46
-366.64
-307.19
-310.89
-346
-297.05
-288.9
-313.38
-310.48
-275.59
-212.84
-214.61
-199.62
-198.49
-226.32
-192.46
-229.37
-138.18
-198.52
-182.74
-116.58
-73.88
-110.67
-60.15
-113.35
-31.93
-1.13
-20.02
30.07
-25.71
21.54
-2.47
60.52
41
96.06
97.82
152.39
117.42
148.16
146.67
149.24
215.73
238.36
248.12
206.83
244.55
217.19
294.66
289.69
303.09
312.86
339.09
342.88
299.61
304.59
397.61
394.36
336.37
367.54
384.44
368.17
465.86
442.51
463.98
433.01
482.82
487.49
482.01
488.27
460.05
464.38
489.63
443.64
498.55
490.82
498.94
446.07
517.71
479.25
504.97
465.86
504.33
463.6
468.76
529
464.5
493.03
507.37
501.47
448.33
518.36
471.85
480.11
441.91
504.49
459.26
446.27
401.35
389.1
426.34
400.3
438.19
409.78
345.32
369.24
365.65
386.13
326.41
361.26
321.83
303.77
321.16
339.6
265.55
308.21
233.49
231.54
272.2
216.63
243.34
200.24
130.53
168.45
141.96
114.56
125.13
130.81
43.28
21.69
48.13
53.96
57.36
-5.94
13.2
-49.74
-64.67
-9.76
-98.19
-91.01
-61.69
-160.14
-94.98
-189.25
-110.47
-189.55
-152.76
-226.4
-165.31
-230.06
-276.8
-215.47
-293.56
-273.79
-265.4
1163.89
-264.64
-319.05
-315.95
-358.4
-356.64
-374.1
-364.56
-363.84
-423.29
-431.4
-388.3
-408.42
-418.59
-461.78
-470.9
-469.82
-447.54
-429.44
-486.34
-461.05
-507.81
-512.27
-465.45
-535.44
-510.97
-527.41
-504.8
-513.89
-517.85
-523.05
-543.25
-540.17
-485.57
-451.02
-447.72
-464.37
-539.22
-462.78
-489.07
-504.96
-455.04
-422.19
-472.42
-432.52
-405.03
-482.31
-483.16
-454.82
-450.64
-401.62
-384.51
-418.01
-350.14
-375.42
-356.32
-339.07
-305.31
-342.56
-306.71
-298.28
-292.66
-296.7
-301.81
-220.64
-296.34
-255.05
-276.61
-240.86
-236.89
-207.3
-125.59
-109.9
-191.25
-101.66
-148.15
-122.2
-90.4
-77.88
-47.4
-83.99
-25.19
14.27
-37.96
-18.42
32.26
62
71.06
127.82
104.93
89.6
110.57
136.74
177.39
158.88
192.17
210.75
167.58
253.64
239.2
226.28
245.36
266.94
265.23
316.95
315.5
306.03
301.38
320.31
349.63
412.19
378.13
412.78
421.49
420.68
455.35
438.61
398.06
449.13
408.77
438.77
413.99
443.94
427.24
504.85
496.82
494.83
535.92
494.42
526.94
489.47
481
528.69
473.56
530.72
522.5
471.31
497.57
513.17
463.17
448.51
454
438.82
452.59
511.13
444.48
470.41
516.06
474.96
459.43
465.99
452.62
392.96
474.77
401.92
428.38
369.06
346.15
424.61
391.89
372.36
344.64
315.23
349.53
303.91
263.96
251.28
330.01
291.31
305.6
238.96
180.5
189.93
244.73
204.46
161.02
127.97
183.17
83.58
159.86
109.62
127.59
49.32
60.23
27.44
-8.28
49.09
27.2
-8.89
-26.37
-2.75
-95.22
-74
-116.71
-129.47
-147.98
-160.65
-171.89
-130.38
-145.57
-192.44
-222.34
-225.6
-281.89
-242.82
-269.01
-287.84
-307.39
-258.61
-317.32
-346.76
-376.17
-341.3
-361.3
-321.87
-325.6
-398.22
-353.18
-429.06
-421.61
-375.23
-425.74
-399.97
-483.56
-421.89
-492.15
-437.21
-438.73
-457.59
-457.48
-478.52
-521.25
-519.49
-495.62
-449.53
-446.94
-462.08
-531.11
-510.95
-497.18
-495.72
-465.97
-459.58
-460.28
-541.88
-537.15
-453.92
-517.37
-493.15
-461.43
-519.59
-462.88
-455.13
-491.05
-426.08
-437.94
-421.08
-406.49
-394.79
-371.66
-411.61
-413.48
-374.62
-381.16
-365.51
-334.38
-354.28
-365.35
-353.64
-355.39
-280.97
-281.76
-248
-282.45
-212.37
-258.6
-200.76
-249.34
-143.42
-211.64
-174.85
-100.74
-105.26
-104.25
-76.93
-106.99
-115.66
-14.29
-43.5
-38.37
-41.71
20.05
1.15
30.33
40.72
52.2
39.27
81.06
144.94
89.16
181.39
197.7
196.97
222.43
150.16
181.35
172.98
241.47
277.53
297.07
221.34
328.13
340.09
353.58
287.54
316.45
358.61
338.77
375.74
347.18
384.69
413.74
365.09
362.56
448.09
420.18
437.52
441.02
465.33
432.78
508.91
442.15
457.95
1958.7
457.72
466.48
476.86
515.91
445.67
466.35
504.76
466.23
526.93
505.94
474.43
467.7
459.47
446.88
444.82
496.29
490.31
487.6
522.86
466.56
484.83
474
479.75
439.68
415.22
473.33
418.24
402.85
455.89
366.48
423.82
356.91
384.88
379.44
316.75
340.6
382.17
347.38
369.81
298.72
323.82
334.7
285.83
284.22
280.22
243.08
171.92
250.69
235.51
133.2
209.11
176.77
168.33
169.54
83.3
66.93
53.58
57.87
78.73
47.54
40.59
-18
-5.4
-61.93
-30.2
-90.71
-48.84
-131.84
-75.72
-142.65
-139.02
-160.66
-139.49
-205.37
-193.82
-228.07
-254.44
-220.6
-207.29
-229.77
-235.09
-284.66
-294.1
-256.32
-301.38
-324.81
-383.11
-343.1
-411.09
-337.63
-360.75
-377.91
-359.61
-403.17
-379.85
-383.8
-473.6
-423.21
-463.74
-480.62
-417.14
-503
-506.29
-503.37
-474.57
-462.15
-496.53
-494.32
-458.73
-461.65
-534.72
-452.66
-488.33
-493.29
-515.09
-464.81
-541.38
-506.32
-497.29
-500.11
-539.45
-514.56
-479.76
-461.07
-480.63
-473.17
-484.34
-438.89
-462.66
-439.72
-482.68
-463.44
-466.29
-429.62
-407.53
-437.25
-426.72
-347.44
-356.74
-310.97
-309.91
-321.94
-300.76
-322.2
-335.52
-242.24
-269.99
-246.79
-242.96
-256.93
-206.95
-243.25
-206.15
-215.66
-134.96
-161.46
-158.85
-92.41
-63.88
-117.42
-81.84
-64.39
-5.25
-52.25
-51.64
27.18
1528.69
8.01
60.26
104.31
60.55
72.19
69.18
128.65
81.2
137.81
174.5
217.78
142.78
164.66
197.99
198.98
282.54
280.76
275.71
307.48
249.45
294.07
351.52
346.01
310.72
351.84
409.01
345.77
339.03
353.05
415.91
369.73
377.24
432.69
446.4
480.19
431.28
463.88
473.62
452.64
481.61
437.47
476.95
460.51
457.83
456.74
455.93
470.89
510.75
533.35
523.05
540.19
453.15
539.41
525.99
469.66
532.26
463.74
443.1
485.87
437.75
448.37
478.3
512.02
477.56
427.43
421.5
488.04
444.41
391.4
378.47
465.16
404.75
414.02
349.19
343.44
396.4
399.98
346.17
354.79
342.86
269.99
259.71
271.52
289.49
309.9
282.61
245.7
217.58
173.6
241.32
171.92
170.79
198.36
176.59
133.94
83.19
91.07
107.28
114.14
53.3
57.39
24.83
42.54
-52.6
-65.33
-45.07
-82.12
-116.81
-121.52
-83.15
-156.71
-83.75
-173.2
-118.07
-122.66
-142.38
-196.01
-176.14
-269.22
-196.1
-245.6
-244.13
-314.2
-265.1
-332.4
-286.81
-305.89
-364.84
-358.74
-379.95
-326.99
-400.89
-427.55
-428.89
-392.11
-406.36
-376.46
-462.26
-483.35
-482.24
-498
-430.04
-480.16
-515.53
-436.93
-471.75
-514.15
-498.05
-485.04
-509.89
-450.91
-450.82
-532.25
-505.01
-484.79
-450.13
-452.3
-474.66
-519.32
-457.23
-478.63
-491.5
-451.08
-505.21
-524.84
-450.91
-515.72
-450.11
-432.42
-475.02
-410.08
-487.6
-429.53
-461.72
-407.86
-369.64
-354.19
-431.04
-360.69
-358.21
-340.47
-394.74
-304.43
-333.84
-330.16
-318.19
-321.94
-324.9
-225.9
-250.63
-215.44
-257.95
-186.59
-193.9
-161.54
-199.72
-173.37
-108.91
-136.37
-148.43
-90.22
-131.41
-116.37
-82.15
-33.19
17.24
16.28
47.74
58.67
52.62
14.83
20.55
109.34
81.87
149.07
168.21
146.73
201.76
157.81
199.54
154
213.53
178.57
249.76
221.03
247.75
309.88
327.73
258.21
312.3
321.33
336.78
336.93
320.18
408.82
374.15
386.26
368.68
451.19
364.82
412.23
444.7
391.45
440.08
412.58
452.03
508.13
508.52
427.9
522.07
511.51
452.79
515.68
476.42
460.9
505.94
468.46
498.39
481.11
535.61
475.63
488.36
516.64
515.04
463.84
502.77
522.26
481.08
437.28
473.58
440.3
479.77
444.1
440.56
434.08
429.59
386.29
437.87
402.11
454.37
419.67
422.05
362.27
347.85
403.43
366.68
295.62
310.29
321.68
353.29
339.88
292.62
244.53
295.58
209.41
198.54
228.41
172.76
213
180.5
199.68
194.09
102.68
115.74
79.65
116.51
72.84
51.61
51.79
68.22
46.03
-44.6
-49.12
-7.3
-30.26
-35.84
-76.1
-117.49
-149.93
-170.1
-149.28
-167.49
-179.53
-133.94
-185.44
-205.94
-265.83
-218.9
-263.8
-226.1
-258.34
-248.32
1197.47
-299.62
-274.59
-378.13
-313.74
-381.94
-320.3
-422.1
-362.81
-391.17
-384.8
-455.55
-460.12
-445.78
-441.53
-431.87
-400.92
-414.82
-448.85
-516.32
-473.67
-436.93
-490.97
-468.28
-501.08
-490.33
-497.06
-449.73
-486.53
-510.24
-490.69
-526.91
-494.96
-454.75
-469.04
-474.83
-533.8
-482
-530.66
-477.51
-509.46
-468.26
-443.86
-498.47
-463.88
-476.36
-405.48
-456.06
-437.2
-445.77
-411.22
-376.43
-375.85
-371.24
-363.34
-366.75
-313.96
-396.18
-311.86
-363.14
-274.85
-341.61
-340.72
-324.23
-307.5
-280.84
-206.02
-221.16
-230.35
-179.21
-159.84
-213.63
-187.77
-162.99
-172
-127.73
-126.85
-128.32
-76.39
-73.38
-53.42
-7.46
-24.79
29.52
25.4
42.66
4.48
73.75
65.34
84.61
111.6
162.35
163.58
193.56
195.97
143.35
228.17
228.98
216.59
247.15
211.66
275.21
274.8
281.87
344.9
338.15
351.29
314.61
390.16
362.85
402.7
352.25
371.85
378.27
428.95
396.08
381.51
470.85
389.7
401.46
486.96
424.11
430.89
451.81
436.1
485.32
432.34
502.99
448.06
464.01
468.35
470.58
493.36
454.86
487.99
470.36
521.71
477.36
522.75
465.13
502.67
526.87
462.4
456.22
436.11
497.43
425.43
483.24
477.3
505.01
433.76
442.27
469.17
424.38
447.06
413.61
369.65
431.22
337.9
362.1
347.44
380.13
355.36
362.03
319.77
334.99
318.02
1827.81
240.57
219.66
214.69
211.89
206.57
240.15
181.91
200.42
137.63
186.61
175.91
89.6
88.68
102.7
88.95
18.35
70.17
65.56
39.27
28.33
-26.87
4.07
-16.75
-55.45
-58.96
-45.25
-64.37
-152.35
-173.17
-108.75
-160.38
-204.01
-168.49
-187.15
-173.42
-205.82
-218.47
-252.27
-220.91
-286.42
-282.85
-261.55
-281.24
-358.29
-355.42
-301.95
-387.46
-353.7
-383.42
-401.18
-400.47
-419
-424.98
-458.35
-427.05
-452.19
-442.27
-433.88
-474.3
-495.91
-517.07
-428.19
-508.21
-529.46
-442.82
-481.17
-460.87
-526.87
-480.63
-476.22
-547.12
-549.61
-548.34
-515.47
-463.21
-457.98
-530.13
-538.68
-491.05
-532.9
-508.48
-501.16
-465.02
-508.7
-428.86
-434.14
-442.64
-453.1
-427.45
-465.47
-453.32
-390.17
-384.87
-346.59
-359.57
-404.84
-329.95
-379.85
-307.29
-300.03
-295.67
-328.55
-343.26
-316.68
-257.65
-308.85
-260.89
-263.55
-187.32
-215.66
-229.02
-227.56
-192.25
-115
-139.29
-149.43
-112.14
-63.99
-83.44
-71.41
-87.09
-48.12
-4.54
-12.81
27.34
67.11
7.5
93.71
67.86
113.19
60.95
112.22
98.74
139.02
118.33
147.86
141.75
215.43
190.41
217.04
227.59
245.77
307.96
239.52
244.56
295.99
277.18
283.11
329.7
353.59
381.53
418.61
399.19
356.9
377.42
434.96
418.85
432.53
412.04
453.6
397.52
407.59
499.73
491.32
495.51
452.45
458.81
521.24
525.52
501.94
531.45
540.22
498.93
510.61
538.34
479.1
478.66
457.27
518.66
466.36
541.1
471.34
444.15
508.93
452.03
456.95
463.83
515.63
476.69
452.55
451.56
410.46
480.78
460.28
415.01
447.21
419.93
379.72
355.2
403.43
366.96
399.3
340.88
307
301.99
306.64
316.45
256.48
247.79
284.03
208.21
273.79
226.23
208.14
227.42
212.33
209.55
204.08
161.43
144.28
142.9
120.83
111.18
93.49
30.32
82.01
47.43
-33.37
29.5
-5.99
-67.64
-61.84
-37.5
-40.33
-55.12
-131.84
-93.5
-133.08
-165.16
-211.21
-151.68
-238.19
-204.08
-274.03
-252.9
-291.82
-243.28
-235.8
-304.09
-322.39
-302.87
-293.24
-296.44
-306.36
-369.02
-338.83
-358.44
-412.01
-397.69
-447.68
-401.4
-430.95
-464.25
-474.09
-476.26
-416.18
-495.78
-469.2
-467.33
-442.58
-522.17
-480.16
-525.05
-463.02
-477.52
-490.04
-528.95
-533.54
-498.59
-485.69
-486.55
-538.03
-449.02
-495.39
-506.94
-502.49
-478.8
-511.9
-448.94
-447.86
-454.82
-511.03
-436.63
-463.19
-485.54
-473.18
-429.12
-422.14
-466.77
-412.14
-392.34
-418.39
-412.43
-411.95
-389.68
-367.88
-392.86
-349.97
-317.97
-321.05
-324.63
-292.01
-244.14
-218.33
-222.15
-225.03
-272.82
-175.98
-203.33
-214.2
-172.17
-137.76
-118.11
-80.93
-64.77
-92.62
-80.58
-47.66
-74.33
-22.75
11.98
28.2
1468.71
69.41
41.26
48.39
46.34
55.59
53.04
110.48
87.05
170.81
139.68
197.12
137.42
209.22
188.15
188.28
186.79
204.25
226.92
323.56
266.11
260.81
286.49
348.55
292.97
336.97
361.01
341.7
379.39
364.32
360.26
382.71
447.2
437.75
410.01
391.25
405.97
492.38
465.76
474.8
432.1
469.21
491.34
499.28
528.99
527.19
456.9
526.73
475.96
517.22
487.58
475.17
487.73
484.93
535.57
532.39
477.78
533.22
505.84
526.6
515.73
467.8
457.23
517.61
442.19
450.86
468.69
410.81
466.66
425.55
423.52
409.58
382.61
364.17
427.78
340.37
387.7
348.43
331.61
328.29
329.84
319.63
326.99
333.39
289.05
224.63
283.78
234.87
191.79
177.66
243.54
155.86
209.43
147.18
166.2
104.94
145.9
86.97
42.15
56.41
49.75
88.36
59.88
29.45
35.79
7.55
0.97
-46.23
-39.46
-47.09
-86.81
-98.93
-118.02
-144.84
-103.52
-136.31
-175.55
-151.66
-220.37
-172.28
-231.73
-239.25
-238.74
-244.48
-283.22
-316.37
-271.26
-296.74
-349.09
-392.56
-310.65
-404.03
-379.99
-424.35
-442.58
-362.47
-402.08
-456.36
-447.2
-470.4
-487.15
-416.42
-503.95
-509
-428.95
-463.21
-490.13
-502.42
-471.03
-496.74
-525.1
-467.15
-525.44
-468.48
-548.71
-481.69
-540.29
-503.2
-522.99
-460.39
-470.79
-503.54
-459.67
-455.64
-458.77
-490.97
-435.13
1050.22
-472.87
-483.09
-411.86
-483.75
-393.35
-424.85
-452.6
-423.46
-366.82
-365.36
-425.44
-430.28
-379.6
-383.63
-322.63
-347.26
-360.11
-351.67
-268.32
-341.15
-283.14
-296.77
-235.14
-252.23
-182.31
-205.8
-241.01
-230.78
-178.57
-160.43
-178.83
-183.58
-91.32
-128.39
-79.75
-81.85
-90.3
-89.15
-21.33
-30.67
-12.64
58.71
74.02
38.33
99.75
115.79
126.43
88.88
94.38
94.39
152.29
184.38
162.45
152.17
175.56
257.31
267.81
236.75
272.19
298.04
256.91
253.71
307.13
348.56
301.11
293.73
375.61
366.91
398.42
412.64
379.75
384.82
422.73
387.63
454.46
414.97
470.91
423.59
409.25
468.3
478.61
518.68
476.15
442.69
455.71
533.07
506.88
513.76
530.75
505.97
517.88
488.04
541.48
488.33
507.02
526.59
498.07
516.07
526.44
453.22
468.4
470.57
473.55
521.47
420.57
427.32
445.22
481.07
426.71
463.51
422.5
418.68
413.37
364.34
434.68
369.52
420.66
366.47
317.91
361.04
344.35
304.71
262.07
291.93
332.76
308.68
268.91
218.59
228.52
170.93
174.79
186.02
167.44
203.51
194.41
130.25
165.42
124.58
48.88
65.27
36.56
12
71.02
-29.51
32.78
-50.83
-50.96
-33.9
-72.76
-27.84
-91.18
-70.18
-158.42
-88
-148.72
-138.88
-219.35
-181.92
-227.21
-255.89
-235.96
-203.32
-248.04
-317.5
-241.03
-326.7
-338.73
-339.96
-350.18
-342.49
-335.94
-393.32
-346.47
-423.96
-351.91
-371.98
-398.49
-434.2
-418.57
-482.38
-459.71
-447.55
-470.88
-458.53
-499.12
-503.83
-484.74
-514.04
-451.99
-514.64
-538.61
-495.53
-526.21
-494.51
-494.62
-539.8
-547.46
-466.8
-518.2
-462.01
-451.84
-480.4
-478.45
-467.07
-483.6
-524.7
-470.24
-509.7
-498.28
-471.48
-476.04
-477.94
-436.84
-428.57
-452.22
-429.28
-421.88
-398.57
-404.15
-374.49
-361.73
-344
-351.65
-325.76
-294.54
-316.82
-308.22
-280
-321.98
-315.49
-308.37
-220.41
-205.68
-225.23
-192.46
-164.96
-203.45
-150.21
-174.71
-153.61
-79.92
-152.44
-81.2
-53.73
-106.7
-9.7
-71.41
-11.38
-18.59
3.58
58
50.66
15.07
23.93
47.89
70.83
138.52
150.06
174.77
135.85
199.22
152.16
158
216.56
246.51
201.05
273.57
224.1
280.86
319.32
328.6
339.57
372.73
373.55
312.86
345.3
363.32
355.33
363.26
437.97
451.56
402.47
377.69
412.53
462.16
425.37
449.4
422.09
469.32
502.14
451.97
472.28
485.08
526.84
536.44
485.65
470.32
464.64
487.7
546.53
543.79
473.55
478.8
510.51
499.72
541.21
496.14
453.33
531.18
466.94
443.91
429.11
424.74
429.52
442.52
465.17
415.21
409.3
394.51
403.21
387.38
442.24
359.36
361.18
384.01
343.27
390.98
391.13
329.82
348.86
265.19
306.5
1751.76
252.81
219.86
218.07
194.98
225.25
164.51
242.02
139.23
213.22
184.35
116.96
78.91
134.36
59.43
97.82
78.63
65.51
49.54
57.32
-3.03
13.24
-3.37
-82.29
-57.34
-99.44
-69.92
-74.3
-155.79
-167.9
-154.68
-200.5
-176.38
-136.51
-210.47
-206.22
-194.61
-280.7
-276.05
-291.54
-253.84
-338.58
-344.27
-326.66
-317.89
-317.67
-344.24
-324.4
-376.48
-343.23
-355.71
-354.4
-413.58
-455.66
-451.92
-457.7
-453.47
-419.7
-410.32
-476.93
-457.6
-463.7
-475.51
-464.73
-523.37
-470.61
-459.71
-463.01
-468.69
-545.71
-540.94
-508.01
-510.96
-473.11
-513.9
-494.05
-528.47
-482.63
-527.42
-526
-528.19
-445.19
-520.36
-489.98
-492.36
-471.61
-460.76
-414.89
-477.91
-473.7
-461.63
-407.26
-441.09
-428.35
-395.51
-409.05
-364.87
-394.05
-348.38
-345.03
-378.58
-298.28
-327.71
-324.03
-285.9
-297.71
-309.32
-220.64
-274.29
-268.07
-257.51
-160.07
-145.63
-183.11
-163.16
-148.21
-173.37
-122.39
-129.83
-124.36
-116.12
-102.66
-87.82
-41.81
18.42
21.54
17.55
0.47
79.86
37.39
31.14
61.59
146.37
104.81
169.13
167.46
210.77
224.83
222.89
178.22
246.96
256.04
211.87
310.64
310.25
263.78
304.89
315.44
283.36
373.21
354.62
404.47
415.25
392.51
369
374.57
441.11
428.92
469.69
422.18
422.1
420.79
430.12
461.53
441.56
421.06
427.81
1970.46
476.36
508.05
496.29
503.94
479.59
534.76
496.83
498.18
534.77
496.78
481.36
491.66
469.88
541.46
465.19
463.18
504.47
444.83
499.02
522.91
484.41
478.9
482.19
500.01
456.55
408.64
463.28
396.93
396.74
433.08
435.28
421.54
370.64
376.9
401.76
400.72
368.84
325.67
359.68
273.02
317.52
321.67
253.61
227.71
232.38
224.53
184.74
164.29
237.5
149.16
159.55
123.95
103.75
151.18
54.37
73.2
76.69
82.14
41.65
10.91
48.08
13.9
15.14
-62.21
-43.45
-66.15
-70.73
-45.3
-84.46
-142.7
-103.79
-102.91
-202.53
-206.1
-202.51
-175.94
-209.19
-237.98
-263.76
-273.57
-271.07
-252.74
-318.66
-346.99
-357.69
-304
-342.38
-382.5
-363.35
-404.28
-426.41
-360.77
-365.15
-447.6
-418.35
-414.1
-480.63
-452.18
-436.91
-413.69
-480.69
-489.02
-434.81
-471.62
-496.02
-506.11
-467.44
-502.81
-484.42
-464.13
-469.16
-475.17
-453.7
-494.07
-471.85
-530.82
-459.42
-473.94
-462.82
-443.1
-475.91
-477.15
-518.95
-483.24
-485.01
-432.88
-492.7
-408.41
-492.65
-446.9
-417.33
-439.13
-381.29
-373.18
-407
-412.43
-398.01
-408.07
-377.14
-366.72
-390.63
-371.15
-343.18
-322.11
-277.94
-244.54
-265.76
-220.57
-272.75
-229.39
-252.36
-215.7
-240.26
-158.33
-191.86
-103.73
-115.64
-133.13
-62.8
-96.85
-100.65
-92.85
1.71
-49.68
7.72
49.49
-29.85
72.69
26.64
39.32
65.47
56.51
130.66
91.63
112.8
167.36
201.55
151.25
168.68
164.33
265.96
274.91
227.12
304.65
263.52
281.3
287.44
283.46
345.29
379.69
376.85
345.08
393.94
385.69
419.73
345.58
430.05
430.1
381.64
410.61
433.05
487.45
473.82
422.89
487.27
485.54
448.76
464.21
483.36
509.15
479.74
525.08
517.38
510.89
478.6
515.75
497.82
527.53
520.63
489.56
454.5
466.39
464.5
500.48
482.66
484.72
495.05
472.66
505.41
473.09
489.42
494.84
426.48
438.39
405.78
413.57
446.56
404.5
367.12
356
367.6
384.78
370.55
401.25
327.97
341.36
306.99
323.63
323.57
261.44
306.25
217.09
259.78
255.51
239.32
198.93
156.66
174.23
172.46
133.12
174.21
91.23
64.99
74.68
84.79
101.48
19.75
60.87
29.83
20.45
-14.79
19.95
6.96
-69.21
-38.61
-99.85
-57.39
-68.9
-163.72
-121.86
-133.57
-180.38
-181.2
-201.48
-181.3
-225.58
-218.51
-301.28
-314.74
-255.75
-286.24
-345.48
-339.2
-373.73
-367.96
-324.13
-317.85
-382.64
-363.19
-401.78
-385.88
-452.57
-415.14
-465.2
-387.83
-405.17
-474.74
-462.93
-445.21
-445.48
-466.62
-464.1
-521.45
-523.14
-505.46
-538.59
-490.51
-528.43
-525.23
-494.79
-465.97
-511.75
-490.18
-492.43
-512.74
-466.77
-489.55
-476.24
-481.2
-456.53
-491.04
-439.17
978.5
-495.77
-453.24
-435.31
-407.18
-440.49
-447.74
-422
-455.83
-428.43
-410.12
-388.17
-424.66
-381.12
-338.97
-370.92
-304.59
-376.41
-349.92
-286.09
-308.91
-328.18
-287.35
-246.4
-270.62
-197.45
-262.62
-180.54
-211.79
-150.41
-119.95
-121.49
-179.73
-117.7
-127.14
-49.93
-60.78
-17.77
-45.21
-31.78
-9.96
7.01
-5.18
43.92
13.51
10.03
50.93
70.88
127.88
68.2
167.89
144.1
119
205.62
198.72
224.91
257.47
257.76
214.02
302.74
279.74
274.3
243.92
254.55
336.42
307.67
363.78
306.1
375.67
373.57
412.02
347.55
404.22
443
399.68
444.75
407.86
413.59
447.17
469.89
416.39
481.71
441.23
523.74
521.98
448.45
477.09
501.67
509.5
498.97
462.64
543.42
476.06
483.56
499.5
543.21
506.49
497.22
504.76
513.66
491.96
510.87
468.88
503.49
463.87
487.02
415.14
501.08
469.29
400.38
413.7
454.48
402.82
424.81
438.89
375.28
421.85
334.75
370.94
344.3
340.47
356.31
310.96
351.74
341.5
255.7
237.04
299.57
293.87
213.82
217.61
164.79
220.23
215.16
141.88
179.85
187.4
164.26
77.44
89.84
118.96
81.72
91
76.54
-18.13
-0.05
39.22
18.23
-29.34
-28.92
-76.43
-113.02
-118.29
-141.61
-139.59
-159.03
-151.86
-129.67
-140.93
-160.99
-245.82
-264.61
-272.26
-272.01
-306.93
-292.22
-263.47
1148.4
-346.92
-355.37
-340.79
-379.75
-385.72
-344.34
-412.93
-358.1
-349.57
-417.75
-386.61
-459
-426.47
-431.8
-408.95
-446.47
-416.13
-513.34
-489.47
-456.55
-458.57
-513.49
-512.9
-514.51
-481
-521.34
-523.88
-474
-527.41
-518.97
-506.24
-521.4
-538.17
-494.31
-474.74
-448.84
-528.87
-453.44
-493.26
-461.5
-488.71
-477.51
-474.73
-459.61
-482.88
-473.25
-466.88
-443.34
-406.2
-420.64
-407.41
-383.24
-417.15
-411.83
-385.94
-335.46
-313.12
-384.9
-351.64
-332.49
-338.65
-293.52
-249.65
-263.12
-235.36
-234.33
-208.35
-227.15
-195.97
-188.53
-211.75
-127
-107.13
-90.06
-84.18
-112.38
-120.52
-49.84
-30.17
-27.03
-3.52
-15.72
-32.85
40.79
13.66
24.34
26.96
98.37
58.22
138.19
148.31
110.89
166.77
172.3
146.04
159.83
207.78
257.67
197.92
256.15
257.73
298.52
252.49
319.76
330.85
345.53
338.49
368.7
378.39
380.75
344.33
354.91
428.29
454.16
429.53
386.68
421.78
445.9
402.18
404.85
507.39
419.39
434.88
434.47
451.41
444.87
492.51
493.83
450.39
516.86
451.94
465.19
504.42
506.04
452.54
518.88
451.01
481.52
487.25
470.86
529.75
486.2
450.26
445.53
453.14
521.19
490.09
424.39
427.15
479.36
428.41
416.65
443.8
390.25
411.17
368.06
437.51
340.16
383.25
330.42
373.49
298.48
365.9
320.71
277.03
316.75
262.46
271.95
222.15
262.7
259.65
213.19
189.14
232.53
188.25
126.74
119.01
151.83
166.95
109.05
42.54
26.61
33.8
14.3
49.85
46.73
19.53
-61.02
-68.56
-95.4
-13.48
-30.68
-100.09
-115.54
-94.24
-163.08
-149.82
-196.95
-200.03
-237.41
-186.7
-257.54
-268.71
-209.72
-275.84
-268.73
-236.18
-281.68
-283.21
-364.09
-353.75
-304.14
-352.4
-319.44
-391.33
-365.78
-433.41
-435.53
-407.2
-453.61
-473.44
-485
-481.73
-486.74
-480.58
-429.62
-483.99
-474.42
-437.58
-471.17
-441.27
-510.91
-532.16
-533.38
-478.13
-532.54
-472.33
-466.62
-488.47
-492.31
-465.27
-477.13
-529.41
-456.42
-536.6
-442.03
-476.44
-510.23
-428.91
-454.22
-471.36
-452.47
-449.53
-484.24
-408.66
-468.77
-381.57
-406.64
-391.08
-377.8
-382.54
-400.89
-366.17
-339.51
-392.86
-314.43
-346.39
-282.29
-344.78
-249.16
-269.18
-273.16
-236.65
-288.46
-278.98
-196.01
-222.24
-205.71
-178.08
-210.75
-165.14
-127.28
-98.2
-142.46
-124.26
-104.07
-51.08
-24.65
-39.86
2.34
14.86
41.32
-4.57
83.55
102.84
114.97
74.99
96.83
118.31
165.21
161.01
186.86
203.5
222.74
167.41
244.46
247.25
204.05
227.69
226.46
297.72
316.98
309.2
320.28
373.86
318.55
374.65
376.76
329.12
397.22
346.7
391.15
423.17
468.12
391.51
449.92
425.55
428.72
423.24
443.55
428.55
444.96
1942.23
515.72
516.62
444.61
522.83
528.92
514.33
536.86
543.76
486.55
518.79
458.07
463.69
518.94
493.95
513.76
529.68
530.23
462.92
526.65
515.23
460.74
465.55
428.97
441.11
422.17
419.35
480.77
462.03
433.04
411.28
410.48
377.29
388.66
375.2
351.15
318.11
351.39
350.31
302.24
302.88
258.14
245.51
247.86
283.51
258.82
280.55
196.26
163.18
180.05
214.24
184.82
183.44
143.07
77.34
136.42
142
59.51
56.51
0.81
59.07
12.85
-16.36
-10.62
-50.46
-70.54
-13.36
-82.86
-39.25
-97.79
-110.38
-168.59
-132.88
-181.64
-193.76
-231.26
-240.21
-208.97
-214.27
-240.13
-252.32
-316.35
-287.39
-319.08
-284.23
-332.07
-300.4
-317.18
-367.69
-312.79
-358.93
-373.96
-344.88
-364.05
-439.21
-402.82
-414.66
-416.8
-427.01
-482.87
-483.66
-479.03
-454.62
-445.89
-502.02
-504.5
-444.75
-495.02
-470.98
-531.01
-464.36
-517.21
-486.35
-538.26
-466.98
-501.69
-483.4
-476.63
-526.82
-496.81
-523.21
-479.64
-442.69
-453.78
-480.4
-500.18
-486.27
-503.28
-498.46
-480.35
-446.84
-433.6
-438.97
-426.69
-445.64
-413.64
-352.25
-423.84
-406.26
-376.08
-377.2
-372.9
-383.32
-347
-278.18
-273.36
-277.51
-281.33
-252.22
-241.62
-221.14
-224.23
-193.14
-197.5
-195.23
-138.3
-174.59
-162.8
-138.83
-159.4
-75.31
-99.44
-48.23
-14.32
6.01
25.39
-44.99
1483.3
-6.35
84.82
27.24
93.74
51
111.4
156.23
150.59
169.43
110.72
209.43
147.85
155.49
238.39
229.36
256.22
214.82
247.98
259.53
296.65
257.73
301.53
363.62
350.13
305.26
322.98
345.51
340.74
384.9
393.19
378.68
423.25
443.92
420.81
422.58
473.14
482.83
486.94
430.97
454.69
462.7
524.72
465.67
439.49
504.54
534.56
504.18
499.37
488.08
500.64
452.84
499.59
449.56
509.24
448.31
531.46
465.23
487.5
451.23
500.51
466.65
472.94
478.78
455.57
489.85
441.64
433.24
464.84
428.02
426.69
433.17
436.23
446.21
405.1
372.46
389.91
311.4
310.88
331.81
337.93
321.57
299.45
245.02
240.51
279.29
230.61
202.64
215.18
240.34
186.21
151.7
122.9
129.76
151.98
91.34
99.26
127.76
96.34
75.87
24.98
-8.86
-10.58
9.7
-1.71
-56.87
-29.13
-23.75
-40.39
-125.02
-79.38
-85.4
-162.1
-127.11
-141.72
-173.22
-226.7
-174.11
-249.96
-233.41
-238.52
-219.41
-295.07
-310.58
-313.79
-253.2
-357.04
-342.99
-332.55
-386.15
-378.55
-382.39
-398.24
-409.99
-400.9
-415.98
-416.73
-422.9
-425.4
-434.68
-475.27
-480.84
-443.15
-485.48
-506.99
-498.54
-507.44
-513.23
-470.23
-536.17
-450.24
-505.59
-456.36
-475.46
-540.18
-454.49
-531.13
-503.37
-477.11
-480.81
-514.73
-503.61
-535.41
-460.74
-438.83
-502.07
-501.54
-456.21
-474.35
-504.62
-436.53
-424.81
-485.21
-473.5
-436.17
-396.88
-408
-418.94
-375.4
-385.38
-343.57
-316.41
-327.78
-318.53
-373.14
-353.21
-268.39
-259.87
-304.48
-295.97
-286.12
-257.08
-244.84
-183.79
-164.27
-145.71
-220.53
-163.83
-189.83
-132.18
-76.04
-105.77
-91.92
-75.91
-66.22
-55.07
22.68
-37.82
36.89
21.3
81.05
65.19
94.08
71.72
55.21
140.77
151.95
92.39
119.65
141.61
209.32
164.2
163.99
188.32
252.86
220.93
258.05
247.69
336.04
290.38
329.05
352.97
368.74
366.59
393.62
348.28
413.02
410.02
368.21
381.95
376.54
442.56
384.17
466.29
446.12
411.77
503.78
498.8
430.5
425.67
457.92
495.67
454.19
458.94
527.79
447.06
545.95
473.29
544.68
465.33
487.15
537.22
546.08
477.53
490.93
480.57
453.33
489.16
492.3
496.95
429.22
447.01
505.08
447.04
470.68
446.65
391.63
407.4
405.95
398.38
398.3
401.59
378.64
364.92
366.74
316.89
379.81
357.36
287.58
301.63
273.05
297.63
330.13
316.1
264
257.03
182.29
243.45
189.42
165.59
199.27
116.22
193.01
97.14
123.91
87.28
134.11
97.29
97.8
38.09
8.51
4.23
44.41
23.76
-62.51
-79.23
-77.76
-31.78
-111.01
-67.74
-97.36
-100.82
-125.51
-190.5
-148.43
-155.06
-190.57
-241.8
-235
-286.71
-250.36
-314.19
-306.45
1189.42
-321.75
-333.74
-346.89
-387.48
-404.23
-318.55
-411.31
-429.28
-384.94
-404.42
-372.12
-470.08
-446.98
-443.1
-415.37
-485.21
-432.33
-458.64
-455.24
-433.81
-481.12
-446.01
-522.56
-535.92
-458.34
-461.3
-543.01
-517.82
-470.65
-547.99
-504.77
-506.4
-519.18
-505.35
-520.4
-540.19
-442.56
-481.57
-447.72
-491.84
-432.9
-456.96
-436.34
-483.59
-455.29
-423.77
-491.33
-390.23
-444.08
-453.25
-405.53
-434.94
-347.44
-405.87
-373.83
-329.38
-355.14
-333.25
-284.37
-271.89
-261.53
-342.96
-327.21
-258.61
-212.57
-209.01
-201.82
-248.69
-156.96
-195.32
-201.4
-153.39
-109.68
-180.84
-90.41
-76.07
-105.67
-37.01
-22.07
-44.34
4.37
15.29
-33.21
27.35
12.07
46.27
34.5
55.01
105
70.05
81.42
84.77
198.39
191.64
172.98
160.52
155.46
251.99
267.87
231.38
234.82
267.83
276.66
273.35
276.64
325.84
368
329.39
376.24
404.18
411.76
382.92
375.87
402.62
430.75
419.26
441.54
419.04
483.65
440.29
501.42
457.17
459.97
472.82
462.21
507.52
435.48
527.38
468.36
455.44
454.93
546.25
452.91
487.54
463.84
486.66
535.17
513.15
512.5
503.43
533.24
523.12
447.04
434.5
469.93
469.4
508.1
475.08
505.14
433.73
489.01
430.81
385.52
413.41
424.45
369.18
439.85
384.89
399.97
322.83
351.24
312.23
302.54
364.49
313.51
252.47
1751.36
256.36
241.55
248.63
268.46
195.79
224.7
167.7
229.3
201.98
177.96
164.14
134.97
65.23
113
61.56
83.84
89.29
-6.27
67.29
17.24
23.22
1.06
-22.97
-12.46
-58.64
-119.41
-119.7
-94.56
-145.39
-126.83
-197.86
-148.55
-144.44
-225.78
-177.58
-266.89
-264.59
-300.01
-239.44
-247.07
-335.89
-276.81
-328.01
-324.9
-291.78
-341.9
-410.42
-411.84
-355.35
-419.67
-367.15
-442.77
-463.15
-452.25
-383.85
-418.5
-431.73
-425.55
-423.02
-417.45
-512.92
-453.95
-439.45
-466.06
-474.14
-492.08
-460.46
-483.04
-520.38
-473.65
-523.55
-514.38
-453.33
-466.92
-486.68
-525.1
-519.41
-496.52
-453.82
-474.47
-470.36
-476.33
-437.84
-507.21
-448.97
-503.21
-446.27
-470.98
-414.17
-408.44
-441.43
-420.56
-372.28
-390
-367.79
-381.3
-391.14
-321.05
-362.42
-307.38
-303.55
-313.77
-321.46
-322.79
-296.52
-246.48
-212.27
-219.91
-185.07
-177.29
-149.5
-215.15
-168.78
-110.04
-140.44
-163.73
-151.97
-85.46
-39.45
-36.86
-97.16
-18.06
-59.48
27.68
4.48
41.89
0.04
71.24
54.55
70.24
105.61
124.92
87.31
124.85
158.23
167.94
230.17
194.75
188.49
239.36
255.48
235.23
286.79
262.86
301.44
280.29
272.86
286.87
350.28
313.15
320.48
395.23
426.02
415.09
380.53
430.66
389.08
466.6
430.02
440.69
416.51
464.67
424.08
424.72
483.21
502.86
500.12
448.06
512.46
463.77
524.94
521.01
499.84
505.75
453.36
504.37
540.02
541.08
471.74
508.13
530.3
512.66
451.27
490.35
449.41
488.98
480.62
434.43
422.07
506.13
502.33
404.83
444.11
460.44
436.7
403.23
406.65
348.5
415.31
403.53
411.72
366
353.59
376.03
352.53
356.71
278.47
322.04
264.23
251.18
281.41
213.73
272.88
196.51
247.63
225.76
186.92
187.97
97.4
84.26
85.48
118.04
93.45
74.92
23.18
28.02
56.45
-27.39
-52.8
-20.98
-12.54
-18.04
-17.7
-54.89
-133.65
-125.21
-176.24
-105.29
-117.36
-159.91
-172.67
-179.23
-234.51
-228.69
-232.86
-250.64
-225
-251.92
-280.72
-327.14
-291.72
-310.12
-354.94
-389.88
-330.92
-399.47
-427.7
-397.97
-416.88
-365.86
-411.5
-438.59
-420.9
-433.65
-402.81
-494.87
-505.97
-491.8
-503.83
-503.44
-433.38
-513.89
-438.09
-481.56
-445.79
-518.28
-531.42
-543.7
-478.91
-455.84
-538.04
-487.56
-536.43
-513.12
-522.2
-453.95
-505.5
-513.32
-444.3
-458.97
-435.54
-503.95
-514.1
-410.57
-478.48
-398.69
-484.53
-427.27
-421.31
-383.27
-451.2
-408.1
-433.33
-347.63
-373.4
-323.21
-378.36
-305.72
-305.43
-281.88
-311.05
-271.79
-309.7
-267.3
-225.43
-280.05
-223.7
-211.72
-161.39
-211.59
-202.82
-127.94
-166.44
-164.2
-102.38
-86.3
-77.68
-111.97
-98.43
-4.51
-25.33
-39.27
1481.48
69.44
63.15
60.8
114.47
122.48
139.39
148.41
164.39
126.99
167.17
215.93
206.07
233.88
178.37
267.43
245.1
257.83
285.42
274.21
256.01
343.99
285.89
320.86
341.15
367.12
332.53
328.21
362.69
419.85
378.15
380.62
444.75
437.33
390.3
391.98
417.13
484.8
449
506.12
422.43
489.09
488.39
487.95
476.97
537.47
452.03
504.83
490.05
458.4
508.4
508.33
492.12
471.27
548.37
513.05
483.21
513.51
444.63
459.33
493.43
485.56
517.42
488.6
467.99
471.35
405.18
489.86
420.51
389.83
411.5
433.52
439.04
426.84
425.34
422.61
335.17
330.54
350.72
345.32
327.76
366.77
286.18
293.86
238.64
236.79
262.7
236.23
206.4
220.04
162.5
173.48
160.04
202.09
114.58
104.82
111.78
108.48
54.79
82.97
25.29
69.01
55.06
-17.85
-11.43
-62.37
-31.81
-65.38
-76
-78.14
-64.35
-140.47
-104.22
-138.71
-177.78
-208.24
-200.34
-159.98
-232.39
-263.02
-186.51
-272.82
-215.67
-234.93
-272.26
-332.89
-346.22
-275.71
-370.27
-381.16
-385.25
-317.31
-332.32
-340.44
-379.57
-368.46
-459.11
-443.21
-429.2
-405.64
-404.67
-421.53
-414.92
-413.9
-504.71
-433.7
-464.91
-458.45
-451.95
-480.59
-518.08
-489.42
-466.58
-448.73
-471.55
-481.55
-477.56
-524.73
-528.21
-536.69
-503.81
-542.52
-448.04
-443.31
-463.98
-438.79
-462.98
992.86
-420.04
-493.64
-408.25
-416.25
-429.51
-434.18
-420.58
-442.52
-450.28
-439.33
-413.75
-385.52
-339.82
-364.89
-338.25
-385
-377.65
-311.97
-345.96
-291.02
-319.72
-269.26
-231.24
-250.15
-231.18
-231.42
-236.5
-196.83
-157.35
-143.63
-109.5
-122.54
-112.29
-87.73
-86.26
-28.43
-86.72
-68.36
-67.93
34.91
4.29
-11.36
22.48
55.49
33.93
49.07
47.05
64.82
117.56
179.88
177.28
116.97
128.03
150.87
241.01
173.98
250.48
212.8
298.04
234.01
287.56
282.78
259.48
355.96
307.07
311.48
347.09
366.45
421.6
356.17
352.17
413.09
409.3
414.83
437.54
426.21
404.08
449.29
478.64
452.77
447.3
442.41
467.79
464.16
501.71
492.14
523.66
497.92
496.45
532.08
450.94
508.79
517.89
491.67
463.69
498.2
545.59
523.52
536.93
533.51
512.08
485.6
456.87
457.65
418.73
491.89
434.48
486.79
451.73
418.19
381.32
442.79
364.88
379.47
391.27
419.7
328.77
343.19
353.9
323.53
378.36
341.09
306.42
302.58
283.71
234.56
294.67
229.25
238.04
203.02
235.87
236.63
180.74
143.02
195.13
138.78
88.56
123.03
108.11
112.39
50.12
41.9
76.65
-13.68
-5.07
25.03
-70.86
-42.23
-37.57
-116.32
-55.73
-91.65
-143.99
-107.09
-108.27
-173.48
-183.35
-156.56
-245.62
-170.44
-236.02
-264.55
-280.59
-263.84
-263.76
-305.67
-291
-342.77
-366
-382.59
-347.46
-376.09
-357.14
-419.84
-384.72
-440.7
-449.95
-391.92
-377.35
-452.87
-445.15
-434.75
-405.18
-463.92
-492.77
-462.31
-451.94
-503.45
-438.45
-493.07
-479.07
-487.99
-497.84
-503.58
-463.53
-469.45
-523.55
-515.24
-510.11
-469.67
-485.97
-483.95
-518.95
-477.15
-480.06
-463.74
-511.23
-433.14
-501.44
-457.16
-433.13
-486.04
-421.89
-468.71
-456.97
-468.2
-403.51
-446.18
-416.45
-383.19
-335.78
-410.48
-381.59
-345.18
-350.85
-352.24
-331.47
-312.85
-331.52
-278.41
-292.79
-210.15
-266.64
-233.12
-208.27
-173.76
-225.35
-150.38
-160.7
-115.51
-132.79
-113.3
-131.09
-79.36
-104.08
-1.01
-41.79
25.72
16.69
-14.88
-0.75
57.16
76.29
55.93
60.66
62.14
79.85
118.37
114.55
180.32
214.95
167.77
193.02
196.52
277.15
269.25
297.32
286.3
231.54
327.5
347.85
352.48
360.25
360.52
313
355.21
406.99
392
417.83
434.38
437.35
439.22
449.14
433.69
419.96
445.96
458.95
494.03
439.5
447.14
442.1
509.88
465.26
482.65
444.04
485.42
522.32
521.09
485.71
522.34
465.52
514.04
545.7
545.85
494.96
496.53
498.92
467.23
518.48
485.47
432.71
480.14
482.97
475.02
409.27
450.61
456.13
442.37
454.77
460.1
454.21
421.79
358.93
424.99
336.53
318.84
388.1
335.81
349.88
357.65
293.22
334.08
1796.16
281.32
299.9
298.11
219.84
267.42
201.55
167.28
221.72
151.84
165.13
153.67
92.41
134.78
95.93
64.16
37.89
78.78
50.5
61.16
-10.86
-23.76
-10.8
-52
-57.27
-26.64
-36.41
-79.3
-153.1
-167.25
-117.38
-120.64
-168.52
-210.53
-179
-205.41
-228.27
-227.23
-274.07
-274.67
-300.38
-331.41
-282.02
-296.11
-340.79
-328.59
-313.53
-371.74
-364.2
-370.45
-358.89
-431.23
-447.02
-424.02
-417.46
-470.1
-413.27
-452.04
-481.49
-451.03
-512.21
-507.17
-476.75
-469.04
-442.92
-486.87
-527.15
-443.7
-469.96
-529.47
-508.3
-509.91
-467.46
-506.47
-521.01
-514.4
-546.48
-483.67
-539.12
-471.81
-491.6
-508.46
-526.96
-430.85
-469.88
-467.61
-448.18
-411.95
-441.44
-489.18
-407.76
-407.56
-394.68
-425.08
-388.49
-409.97
-369.14
-333.65
-374.46
-323.34
-331.25
-285.93
-355.72
-297.6
-257.2
-271.99
-251.6
-232.25
-265.31
-206.37
-224.51
-160.51
-200.68
-149.83
-174.58
-124.97
-87.51
-121.33
-109.62
-103.41
-45.9
-54.85
-17.43
-74.71
-27.22
49.13
64.48
-3.58
87.77
26.28
61.87
119.93
103.25
150.21
123.2
186.48
168.59
133.32
189.84
225.39
262.08
215.84
246.56
238.77
246.04
304.5
286.98
340.1
363.74
309.02
311.42
347.34
407.72
361.75
342.34
408.69
378.06
415.33
385.51
464.16
421.98
494.5
477.8
469.77
439.08
433.02
430.96
1956.63
434.7
496.83
528.72
502.39
458.67
524.4
453.97
504.34
517.49
522.32
456.32
495.92
466.85
534.81
537.31
528.24
444.69
501.28
520
438.56
503.08
467.08
461.9
409.34
452.45
445.26
465.14
432.84
436.84
405.69
435.15
380.88
374.1
349.03
338.21
381.47
296.09
350.3
290.86
286.87
319.88
308.28
225.67
286.4
248.16
237.44
230.52
197.17
214.58
171.56
203.84
146.57
83
94.28
95.54
55.68
69.24
37.46
46.23
2.61
62.39
-35.21
29.2
-4.08
-26.37
-39.13
-116.19
-90.42
-74.6
-116.45
-90.29
-111.83
-171.31
-198.52
-225.02
-163.26
-188.26
-261.65
-280.23
-308.07
-256.11
-278.73
-330.72
-315.13
-332.51
-355.77
-299.56
-322.32
-332.77
-416.3
-384.43
-348.37
-413.53
-444.84
-445.2
-404.7
-437.97
-462.27
-464.6
-456.48
-480.72
-517.46
-502.22
-498.38
-468.76
-529.09
-520.61
-468.42
-518.22
-518.59
-538.16
-475.55
-513.99
-528.91
-539.86
-451.26
-522.25
-456.28
-469.67
-520.71
-525.57
-515.12
-450.41
-438.68
-465.85
-440.49
-496.05
-429.52
-443.02
-445.11
-452.99
-422.91
-430.11
-416.1
-387.81
-391.89
-389.73
-401.45
-396.88
-350.24
-366.75
-325.74
-340.04
-296.81
-246.57
-307.22
-251.74
-242.68
-211.35
-237.47
-174.04
-194.84
-218.32
-214.31
-113.36
-195.35
-172.82
-131.36
-117.7
-54.83
-54.09
-75.26
-35.24
-31.17
-48.52
-4.41
2.56
50.37
-2.8
12.05
83.41
135.12
89.03
105.49
166.26
169.53
120.62
224.43
211.74
177.37
238.14
264.95
202.09
228.08
279.55
255.58
309.11
305.17
293.91
302.75
327.03
315.68
322.33
333.44
364.31
382.45
407.68
398.48
465.23
418.11
473.88
420.21
443.91
455.74
428.24
430.45
501.28
463.57
488.32
496.54
474.19
453.22
464.49
487.59
497.17
543.79
488.5
460.06
524.37
505.07
479.93
538.94
530.16
480.73
490.41
476.15
435.62
517.17
484.63
477.69
441.68
422.68
487.58
440.19
386.64
436.64
424.58
447.08
420.57
422.79
378.97
392.24
366.25
312.68
333.01
349.97
279.02
279.01
322.36
314.24
264.09
220.67
246.53
252.81
190.12
192.63
214.75
217.34
139.17
126.49
88.29
89.02
130.87
50.72
109.26
54.01
92.33
49.12
34.9
21.52
33.73
-68.64
-42.94
-95.12
-81.79
-97.77
-145.03
-71.85
-139.55
-157.43
-207.62
-176.38
-174.6
-220.3
-173.86
-262.31
-255.84
-264.39
-302.82
-319.97
-293.69
-287.49
-308.1
-336.71
-292.43
-342.6
-325.52
-368.55
-353.3
-360.93
-381.25
-443.43
-447.29
-461.04
-417.81
-457.86
-439.52
-459.53
-460.28
-485.49
-457.08
-520.94
-473.14
-460.89
-505.97
-507.23
-509.46
-452.61
-538.62
-455.35
-470.1
-460.83
-513.79
-526.49
-478.51
-521.2
-449.12
-536.53
-476.45
-442.51
-526.16
-478.09
1011.11
-451.63
-483.43
-417.95
-423.44
-401.86
-478.04
-449.44
-375.23
-395.56
-356.71
-423.84
-427.12
-358.22
-363.43
-361.04
-344.16
-329.8
-275.19
-262.75
-304.02
-294.85
-305.07
-255.62
-236.97
-247.68
-235.93
-236.47
-220.39
-170.92
-201.35
-134.63
-105.5
-113.99
-152.82
-63.1
-45.22
-114.44
-16.42
7.4
8.81
29.9
-4.75
17.16
30.88
56.48
22.13
130.93
58.66
90.51
139.23
114.72
138.3
141.29
226.52
241.5
226
234.41
250.19
227.91
255.61
266.59
284.72
342.06
269.77
347.87
366.3
325.53
390.12
325.56
398.52
392.13
398.18
418.46
381.68
389.14
407.38
425.76
454.07
496.11
417.09
422.81
478.88
487.06
440.5
512.03
445.83
466.61
521.79
522.98
475.76
450.81
540.11
467.83
456.02
456.01
448.94
461.28
507.56
518.5
504.15
437.58
467.67
461.66
443.71
504.86
479.4
429.08
488.75
442.69
423.81
382.02
453.9
403.37
447.47
361.12
391.65
416.44
394.37
319.83
313.51
336.34
304.72
294.67
317.1
270.75
251.44
306.71
221.68
260.34
213.14
209.45
227.38
207.76
146.69
160.48
186.8
81.03
143.52
87.6
36.86
25.17
21.35
21.15
48.92
8.06
-27.11
-34.07
-8.29
-67.18
-108.92
-51.22
-125.8
-97.44
-136.15
-119.14
-168.91
-138.35
-222.51
-220.31
-223.66
-197.43
-246.05
-223.58
-291.54
-247.6
-274.73
1244.01
-288.4
-283.74
-320.71
-333.71
-325.67
-365.72
-387.11
-425.49
-418.91
-413.8
-439.56
-396.19
-450.17
-481.63
-479.84
-413.38
-463.74
-477.19
-494.7
-510.05
-442.03
-482.36
-453.08
-470.14
-465.91
-475.93
-461.57
-483.08
-460.74
-514.25
-467.03
-481.51
-464.42
-526.94
-543.56
-490.3
-507.71
-466.38
-450.39
-495.88
-440.26
-519.1
-436.59
-457.61
-483.56
-421.12
-468.09
-447.25
-449.29
-424.47
-403.24
-401.41
-399.76
-371.21
-373.22
-406.18
-313.03
-302.74
-372.82
-267.16
-290.64
-276.17
-230.78
-282.72
-301.76
-259.49
-223.79
-263.25
-176.67
-160.21
-176.12
-157.14
-152.4
-98.17
-161.5
-65.47
-94.02
-21.69
-8.95
-50.3
21.05
-10.08
50.04
1.02
13.01
46.19
94.95
37.83
64.69
88.79
116.72
137.34
197.43
147.47
159.23
198.52
229.49
212.98
202.67
267.1
296.44
259
296.17
330.83
345.73
361.92
323.31
337.52
403.24
347.48
425.9
416.07
381.95
389.77
411.97
389.31
465.03
406.15
465.1
424.63
411.8
509.36
442.54
512.22
457.2
465.85
520.24
517.44
451.34
498.14
469.88
489.38
463.55
527.59
500.55
507.25
542.6
450.79
507.08
515.3
494.46
476.35
528.43
510.7
448.74
460.4
490.08
442.81
425.43
487.61
400.67
471.61
429.02
420.67
396.14
428.75
383.44
391.39
386.33
406.15
354.25
293.27
356.39
270.6
259.63
249.97
307.37
250.18
250.69
238.93
219.37
198.82
199.71
182.5
125.93
200.82
183.89
97.58
82.96
55.81
91.65
74.94
15.95
0.11
43.51
-29.88
35.35
-4.74
-68.29
-63.81
-29.01
-120.98
-95.6
-108.89
-86.25
-175.55
-114.44
-148.93
-158.93
-174.53
-184.14
-176.42
-208.83
-240.16
-298.14
-227.54
-244.58
-331.09
-265.6
-306.46
-374.42
-363.93
-334.8
-317.08
-397.13
-336.37
-424.92
-427.19
-435.2
-424.97
-450
-389.72
-488.11
-473.77
-498.55
-482.43
-504.78
-507.73
-450.18
-434.24
-533.58
-486.75
-449.97
-528.89
-463.09
-538.83
-478.77
-539.61
-483.93
-459.96
-473.55
-492.32
-500.97
-514.34
-464.01
-459.09
-479.13
-477.33
-430.89
-519.19
-441.61
-510.54
-495.06
-427.06
-444.25
-424.39
-420.08
-395.95
-389.19
-367.05
-404.63
-350.02
-422.27
-395.89
-306.06
-326
-353.68
-347.71
-296.22
-268.06
-273.31
-320.71
-263.82
-265.45
-257.67
-178.77
-242.11
-150.11
-169.19
-188.06
-159.18
-101.34
-143.26
-58.78
-79.08
-91.26
-28.9
-20.96
4.71
5.9
-8.24
-14.35
31.25
-3.81
40.96
75.33
115.97
141.86
108.48
91.77
185.8
176.26
226.78
192.07
180.62
179.07
193.72
273.09
254.16
282.01
243.97
301.22
302.8
290.42
340.63
319.32
307.34
340.84
335.85
422.74
387.15
404.9
455.2
390.37
430.36
439.42
452.91
435.49
496.09
467.37
486.98
428.08
1938.02
459.95
444.18
446.23
517.69
459.54
526.17
489.41
543.64
501.96
471.17
488.03
502.73
467.24
461.32
453.17
509.55
452.07
505.21
466.72
460.04
446.11
420.65
436.85
489.3
447.27
397.77
477.74
421.54
375.98
458.52
421.64
418.55
373.43
330.8
333.09
329.98
307.04
296.58
322.48
308.06
253.14
283.14
314.71
235.83
231.15
194.38
212.89
166.67
147.73
171.58
161.69
166.68
116.05
122.74
133.3
121.06
118
18.19
21.09
72.9
61.64
-47.01
5.99
-18.07
-10.15
-96.49
-78.88
-117.62
-86.51
-153.8
-172.25
-118.74
-192.66
-208.66
-177.05
-231.61
-245.05
-226.21
-207.65
-246.92
-267.55
-320.32
-325.08
-305.56
-343.95
-347.11
-292.22
-352.92
-349.87
-371.62
-379.87
-431.48
-380.4
-426.25
-460.99
-456.47
-460.98
-453.26
-488.89
-482.69
-441.92
-482.92
-445.58
-520.01
-467.98
-517.18
-503.62
-485.88
-454
-448.74
-526.58
-478.5
-454.69
-515.23
-480.8
-549.24
-545.82
-483.72
-507.02
-522.26
-475.58
-532.73
-520.23
-509.25
-437.27
-462.95
-448.69
-499.2
-446.55
-426.41
-447
-397.94
-418.91
-398.64
-444.61
-372.81
-394.55
-328.56
-367.27
-399.39
-307.69
-361.04
-354.6
-332.65
-338.43
-276.97
-254.1
-302.79
-296.2
-236.87
-272.43
-169.79
-181.9
-134.34
-146.56
-176.96
-152.98
-116.59
-156.88
-136.84
-116.84
-44.72
-16.12
-83.94
-19.34
-35.59
1476.06
-10.37
50.37
13.38
37.87
38.97
136.78
153.67
86.72
96.12
151.85
126.17
144.92
209.3
263.91
185.83
211.32
267.97
246.14
235.96
290.54
306.82
284.76
322.72
296.56
382.95
390.08
375.25
413.33
358.64
375.82
386.21
382.41
441.36
480.29
442.21
474.62
457.76
424.04
511.58
492.13
471.66
526.32
447.68
531.51
484.81
444.13
499.97
477.69
463.92
532.82
451.89
452.09
462.84
506.21
488.06
527.61
535.78
458.26
510.36
507.71
494.55
447.13
455.67
431.11
428.46
501.87
460.08
471.1
383.38
471.64
454.38
448.1
353.52
389
394.11
390.82
393.44
310.96
317.1
295.11
299.3
259.18
260.26
280.1
289.9
213.21
258.47
185.52
258.99
200.09
203.64
209.31
198.73
174.2
131.41
73.38
51.56
59.72
40.31
93.47
-2.98
52.03
-4.85
-40.62
-61.83
7.91
-84.43
-54.51
-37.62
-86.27
-125.43
-134.61
-152.37
-132.42
-212.06
-193.69
-156.44
-190.94
-257.95
-244.3
-283.23
-293.12
-298.15
-338.87
-295.1
-352.68
-367.16
-349.24
-396.21
-397.4
-348.62
-401.87
-347.27
-444.41
-424.45
-393.68
-448.29
-414.49
-461.08
-447.51
-429.09
-427.42
-500.97
-488.49
-481.02
-434.63
-484.97
-502.39
-472.72
-479.99
-454.15
-537.09
-449.78
-477.17
-474.59
-481.91
-510.27
-545.39
-524.14
-482.32
-492.38
-462.55
-537.36
-501.42
-518.14
-497.32
-482.55
-503.86
-463.74
-464.22
-398.82
-409.58
-423.54
-467.6
-392.48
-422.62
-363.98
-400.83
-405.6
-416.24
-404.08
-302.49
-340.46
-289.4
-298.39
-350.67
-308.24
-304.84
-306.6
-277.16
-248.11
-246.46
-170.98
-166.38
-144.67
-192.97
-189.3
-95.1
-141.44
-121.92
-112.41
-100.89
-40.32
-61.05
-0.65
-38.25
-10.26
-19.66
16.93
4.11
35.04
104.08
79.91
88.42
98.86
126.6
106.62
173.12
147.56
214.7
227.46
181.44
174.44
232.55
232.64
309.43
309.2
334.96
302.35
346.57
311.57
333.61
320.25
319.6
344.29
384.51
429.37
365.79
362.05
383.88
411.01
425.8
390.05
433.5
428.76
467.48
492.32
513.47
489.53
446.49
440.85
522.53
510.73
476.91
447.99
479.23
540.97
480
482.79
548.96
463.86
469.43
527.74
502.69
508.42
511.52
510.75
504.88
475.34
451.45
505.9
515.39
425.25
433.2
461.83
408.28
438.03
384.32
403.47
412.98
420.56
390.25
366.51
359.23
390.82
367.82
291.12
371.51
334.13
307.28
338.29
325.49
269.78
289.21
284.77
249.36
190.78
179.87
193.27
126.43
120.44
171.65
113.24
122.6
93.41
46.41
68.27
56.7
88.08
33.99
36.81
22.75
11.58
5.74
-62.32
-91.76
-34.97
-61.74
-70.39
-118.71
-108.48
-108.62
-192.52
-221.17
-202.34
-168.86
-224.44
-195.43
-218.64
-276.77
-242.74
-331.11
1229.25
-302.88
-329.63
-337.31
-358.11
-319.84
-388.41
-354.93
-420.64
-443.58
-440.19
-441.01
-423.14
-431.16
-460.36
-437.26
-421.26
-462.32
-451.25
-473.98
-470.37
-476.68
-459.04
-508.58
-465.7
-519.91
-499.12
-532.21
-546.79
-480.02
-460.49
-494.74
-516.37
-540.8
-530.19
-454.82
-540.7
-504.82
-522.34
-495.26
-450.95
-512.21
-437.83
-509.73
-426.32
-499.34
-446.41
-439.77
-419.96
-399.21
-387.89
-371.6
-363.97
-431.07
-357.59
-333.47
-389.95
-360.18
-329.88
-356
-292.43
-298.69
-265.29
-292.84
-240.36
-282.11
-244.23
-262.6
-179.36
-237.08
-228.3
-188.56
-152.82
-108.71
-110.38
-75.64
-55.31
-49.8
-103.55
-50.08
-66.45
-69.4
32.69
39.93
-30.6
16.95
74.8
15.33
67.86
128.21
147.46
116.7
115.59
120.5
208.76
176.92
189.34
180.63
181.78
254
221.29
299.25
280.6
263.33
315.33
324.64
292.18
350.51
306.93
381.42
412.71
417.94
352.92
387.75
356.29
420.35
443.23
470.13
429.57
414.78
451.57
474.09
444.21
484.26
426.59
441.17
444.1
489.42
491.34
463.53
461.86
535.36
451.02
526.34
520.77
460.37
493.13
534.25
544.05
447.7
540.4
497.1
505.56
512.84
442.68
513.05
431.54
514.55
481.92
431.36
467.51
396.48
401.47
461.62
407.54
384.28
367.98
367.45
432.28
406.69
405.13
350.45
299.17
355.46
337.1
324.79
252.32
1755.17
286.12
266.26
260.82
203.44
237.36
213.15
166.34
193.87
183.58
174.57
148.83
134.14
137.32
108.73
30.17
105.54
-1.41
-10.75
-2.05
-36.39
-0.37
-76.45
-4.61
-27.57
-83.53
-134.61
-109.14
-96.34
-110.39
-181.52
-204.88
-135.1
-207.56
-225.03
-263.41
-250.14
-208.12
-208.71
-243.95
-264.66
-261.23
-302.85
-308.26
-367.21
-339.95
-310.25
-331.9
-401.38
-336.81
-396.94
-449.45
-392.83
-397.81
-410.77
-384.82
-409.83
-495.19
-433.37
-477.52
-434.94
-516.06
-480.42
-465.79
-504.47
-503.89
-474.32
-451.13
-495.72
-486
-466.52
-497.3
-484.82
-541.16
-502.11
-539.54
-477.18
-460.97
-518.36
-442.44
-459.69
-448.01
-448.63
-519.67
-434.61
-506.58
-409.88
-461.75
-479.94
-410.49
-393.77
-391.17
-406.54
-370.03
-388.43
-357.25
-411.89
-333.25
-306.7
-311.96
-305.59
-364.43
-347.21
-296.82
-282.03
-273.59
-231.25
-229.76
-205.85
-247.8
-232.43
-227.58
-182.84
-182.08
-193.39
-179
-153.62
-60.08
-86.2
-98.3
-18.1
-2.28
-0.12
-68.99
-21.81
48.69
-6.02
23.24
31.73
78.8
110.94
121.84
84.64
159.2
153.32
150.23
190.93
211.43
249.88
238.3
192.7
213.59
250.2
269.11
237.65
268.75
348.14
346.1
322.84
289.07
391.87
340.83
388.79
389.29
426.93
413.63
440.23
385.71
383.57
399.26
476.58
402.34
499.76
463.33
439.11
459.85
468.11
454.16
441.28
459.46
517.22
537.9
542.82
487.78
530.88
489.62
481.79
519.81
543.93
528.1
543.76
514.48
471.22
440.43
527.98
478.8
449.28
522.45
443.51
499.66
439.56
423.54
441.88
420.91
449.1
457.65
403.8
390.78
411.63
386.8
348.08
378.96
328.59
354.99
337.8
287.25
289.73
263.77
244.27
296.27
289.37
216.02
272.85
225.09
163.37
164
175.25
160.93
171.68
156.77
124.1
79.35
99.96
123.44
69.62
59.27
47.03
-25.57
-31.46
19.02
-64.55
-85.52
-88.19
-87.84
-96.74
-127.85
-79.34
-125.59
-132.3
-185.73
-193.29
-149.37
-228.65
-189.69
-234.78
-225.21
-219.82
-306.28
-242.26
-296.9
-313.92
-264.05
-337.82
-373.15
-372.57
-337.07
-322.72
-334.45
-351.02
-382.45
-441.25
-380.19
-418.39
-423.17
-445.63
-465.56
-495.91
-418.69
-442.64
-422
-513.91
-440.79
-476.24
-511.81
-486.54
-539.43
-532.31
-517.14
-486.96
-465.31
-538.43
-469.46
-458.82
-537.57
-527.26
-534.99
-529.93
-441.87
-446.46
-447.53
-451.42
-503.87
-483.56
-420.38
-440.06
-456.59
-438.36
-417.27
-474.46
-428.27
-427.43
-448.73
-443.87
-340.07
-388.05
-392.71
-333.43
-365.47
-319.67
-303.03
-267.32
-337.42
-267.69
-304.93
-246.13
-261.76
-280.16
-259.34
-204.21
-198.06
-209
-137.8
-108.58
-142.98
-149.39
-100.39
-126.39
-58.38
-65.24
-15.59
-56.21
-60.87
18.43
1479.76
-20.3
-9.45
62.85
86.37
94.47
87.61
84.9
169.42
160.01
177.08
174.78
179.81
220.36
184.34
233.42
214.84
240.04
280.19
230.51
256.91
261.39
286.91
369.72
383.1
375.53
323.51
348.09
349.95
338.93
444.25
361.5
365.08
461.51
410.78
433.19
468.74
433.19
453.69
430.99
485.86
468.54
517.34
458.58
517.7
503.38
523.34
453
514.02
480.6
528.64
529.9
454.46
511.07
472.05
547.25
493.16
504.35
491.43
488.79
435.86
497.68
485.29
499.03
485.77
443.09
466.01
487.93
423.1
413.54
465.69
386.54
418.8
399.79
350.84
334.35
339.25
336.45
372.59
323.25
346.34
344.34
319.52
326.08
307.99
234.36
277.88
230.81
276.03
177.71
169.23
145.49
136.18
163.7
109.69
134.06
126.59
78.26
41.69
72.24
37.34
32.31
68.14
41.19
-31.98
32.4
-19.86
2.3
-91.65
-118.05
-130.45
-96.13
-106.14
-96.66
-192.57
-166.19
-171.8
-189.52
-223.72
-218.29
-283.77
-253.16
-277.17
-262.58
-278.74
-289.54
-310.85
-340.4
-372.41
-333.96
-330.68
-408.07
-396.08
-350.29
-361.54
-365.6
-402.25
-451.02
-419.58
-399.75
-400.35
-454.6
-423.46
-489.15
-474.19
-432.59
-513.99
-476.36
-517.69
-512.79
-451.66
-446.45
-503.26
-524.86
-482.75
-489.62
-510.79
-462.52
-483.58
-525.67
-489.66
-490.49
-448.04
-510.43
-494.3
-450.73
-470.5
1049.58
-451.17
-461.83
-406.68
-448.17
-468.11
-411.3
-443.43
-403.99
-431.96
-396.4
-373.62
-375.55
-365.19
-379.71
-394.33
-361.6
-296.89
-316.65
-264.8
-259.73
-312.94
-312.46
-283.21
-255
-185.73
-266.54
-206.06
-205.98
-145.96
-143.69
-190.97
-130.08
-136.86
-96.7
-70.09
-49.46
-96.92
-83.05
-58.61
-23.64
-37
-18.14
29.91
69.77
14.79
57.21
86.15
153.79
163.65
152.29
137.87
125.19
185.47
228.62
229.91
192.49
271.76
261.83
301.77
298.27
251.77
304.27
293.84
326.59
293.19
325.97
377.49
390.72
395.19
431.4
370.31
428.06
435.59
389.83
446.73
435.42
410.24
417.09
449.75
412.09
493.59
424.9
434.57
522.16
523.21
490.95
443.17
460.9
455.84
513.21
461.72
509.27
507.31
486.43
479.44
456.13
498.53
499.24
482.37
457.31
524.94
509.51
491.26
475.34
456.54
457.31
455.27
496.43
439.52
482.54
455.94
452.88
450.59
430.4
395.69
432.58
391.48
365.21
339.95
362.7
286.51
318.9
291.18
347.49
297.21
236.93
218.33
221.56
282.55
244.59
168.8
199.74
148.3
206.5
198.6
125.84
109.37
120.98
79.67
117.04
26.92
2.57
61.2
-30.44
-5.4
-15.4
-31.71
3.7
-13.42
-90.93
-99.57
-77.5
-141.18
-124.18
-119.29
-139.91
-192.54
-163.67
-249.65
-265.35
-239.31
-290.15
-265.1
-298.88
-248.74
-321.24
-297.01
-337.92
-294.71
-321.89
-396.16
-358.31
-337.6
-428.03
-418.02
-447.15
-378
-425.42
-460.54
-443.98
-467.98
-439.86
-451.35
-417.75
-469.79
-472.69
-497.53
-434.4
-501.42
-494.15
-511.99
-500.3
-534.67
-478.93
-451.26
-510.49
-522.45
-451.49
-537.39
-527.06
-505.45
-536.17
-449.34
-445.77
-459.02
-449.36
-452.27
-464.88
-474.95
-433.99
-456.89
-450.1
-455.36
-443.51
-414.24
-459.07
-443.16
-424.9
-374.04
-394.88
-409.98
-345.33
-312.88
-312.38
-368.93
-286.66
-356.98
-253.7
-268.85
-315.44
-238.86
-204.99
-281.43
-207.94
-177.24
-170.58
-169.18
-146.61
-192.59
-91.42
-113.29
-139.82
-93.75
-120.15
-74.04
-54.84
7.04
-44.26
29.91
-14.57
11.26
15.76
85.3
38.43
78.48
98.07
146.53
102.01
97.16
109.14
185
186.44
183.15
257.87
269.2
269.88
232.29
266.02
311.65
333.63
289.56
338.2
351.62
359.19
355.81
322.09
346.07
371.47
377.71
422.16
419.92
440.24
470.68
467.22
477.92
405.31
411.9
426.79
442.33
479.95
425.56
438.54
458.33
483.56
449.12
524.33
451.82
449.92
455.15
500.74
498.08
464.6
478.51
463.18
484.36
520.47
531.01
537.3
437.43
462.04
441.53
441.97
480.88
510.83
458.12
440.19
426.94
447.75
465.38
433.37
405.03
379.59
389.38
342.68
368.4
386.22
401.85
313.54
330.86
276.88
288.68
265.52
1777
266.87
271.78
221.6
252.31
239.68
165.73
206.63
140.45
193.46
131.88
143.83
108.76
79.21
75.79
108.05
65.39
101.85
1.39
32.41
41.05
-16.87
24.61
-54.09
-15.79
-96.51
-52.89
-112.23
-80.22
-114.46
-96.18
-138.16
-170.47
-227.22
-216.1
-192.76
-246.05
-224.94
-267.11
-289.68
-236.48
-269.73
-315.2
-354.64
-369.25
-346.01
-328.98
-400.85
-362.41
-396.89
-371
-431.3
-454.26
-449.42
-441.73
-453.57
-471.7
-408.77
-406.46
-469.03
-490.41
-436.75
-455.98
-508.67
-467.44
-527.56
-454.34
-537.98
-503.23
-472.2
-511.55
-541.09
-462.84
-529.22
-483.58
-457.1
-542.08
-492.77
-462.05
-494.93
-493.75
-470.14
-474.54
-484.66
-425.42
-450.68
-503.78
-409.08
-401.28
-442.92
-434.67
-437.61
-433.03
-446.15
-423.97
-362.97
-403.01
-325.18
-335.12
-319.76
-387.66
-363.86
-306.71
-263.19
-325.55
-275.27
-286.5
-230.74
-199.31
-213.96
-225.25
-203.68
-197.16
-196.28
-150.46
-138.9
-119.66
-120.19
-130.53
-66.62
-63.79
-15.49
-73.68
-14.46
-29.21
29.23
47.39
12.71
93.38
53.66
112.55
143.35
97.49
151.83
102.94
143.26
122.66
167.43
156.63
234.76
270.65
188.46
294.37
248
234.41
261.42
277.98
276.77
296.37
321.56
346.31
401.9
412.72
364.01
363.75
354.81
366.23
417.58
459.91
453.8
402.52
432.01
463.37
481.5
445.1
455.44
439.3
2026.07
517.69
472.02
451.31
472.81
472.28
536.02
534
504.97
479.17
547.3
521.48
511.87
502.1
518.49
535.03
501.4
532.63
483.79
500.3
505.36
508.21
450.55
489.52
460.34
410.68
420.53
434.63
442.86
459.33
433.83
400.54
409.64
420.57
336.41
386.51
311.14
357.62
347.04
315.48
337.04
267.15
249.25
278.86
215.3
280.17
183.31
202.28
231.61
196.9
219.67
184.57
195.8
100.18
144.53
111.54
101.47
89.9
15.22
49.36
22.53
2.71
-29.19
-2.41
3.94
-41.59
-64.68
-81.23
-138.43
-124.15
-123.67
-86.93
-103.34
-149.36
-204.88
-145.33
-173.3
-218.08
-190.66
-218.31
-233.37
-291.94
-319.98
-297.98
-277.19
-273.6
-303.88
-339
-338.8
-389.97
-353.5
-418.63
-390.99
-354.53
-459.88
-373.86
-465.7
-444.41
-396.38
-494.06
-417.94
-464.15
-506.47
-430.85
-442.93
-464.15
-475.31
-488.76
-518.2
-512.46
-471.2
-472.76
-451.79
-454.26
-510.15
-534.84
-481.92
-526.57
-499.94
-508.05
-477.99
-521.49
-512.04
-479.58
-473.63
-517.13
-513.16
-429.17
-468.47
-428.51
-417.94
-435.98
-397.72
-450.38
-375.8
-354.95
-345.75
-402.55
-328.02
-352.73
-319.29
-318.61
-358.67
-311.96
-282.23
-285.2
-290.14
-280.15
-293.24
-220.55
-234.35
-191.37
-171.84
-224.67
-140.32
-161.8
