384.15
366.44
366.17
405.68
364.41
375.86
376.98
419.64
379.75
416.05
454.48
434.79
482.97
499.84
478.49
423.97
501.36
449.26
430
466.14
513.26
531.23
450.44
539.16
537.99
470.37
524.31
549.6
458.96
510.8
462.68
533.69
487.09
504.15
528.58
504.42
441.87
492.4
521.98
433.38
439.77
440.04
455.33
435.9
415.04
394.6
390.22
405.66
424.22
409.05
354.32
376.77
408.36
367.2
342.26
336.22
330.81
343.86
320.72
297.68
234.73
276.87
265.27
249.47
273.15
197.03
149.37
211.02
163.23
155.71
97.36
160.37
157.92
71.01
35.93
78.33
34.28
18.74
-14.07
6.44
13.94
-56.11
-58.63
-32.86
-88.47
-42.71
-142.18
-100.02
-97.57
-182.84
-201.81
-151.22
-148.93
-244.92
-261.73
-204.91
-255.36
-222.4
-286.56
-285.19
-302.68
1210.09
-344.91
-298.78
-377.1
-316.44
-397.67
-350.37
-424.83
-387.9
-396.95
-426.01
-396.57
-396.17
-423.58
-409.22
-433.79
-487.17
-492.56
-422.74
-424.6
-495.6
-499.79
-511.61
-467.24
-520.88
-501.54
-519.38
-474.99
-472.72
-546.79
-496.76
-482.37
-532.88
-464.81
-486.51
-479.07
-507.65
-442.19
-507.72
-532
-465.34
-503.16
-458
-463.19
-447.18
-458.43
-468.01
-437.17
-427.9
-474.35
-373.41
-413.07
-410.24
-366.46
-340.02
-388.09
-365.22
-334.63
-306.15
-299.05
-281.85
-315.12
-284.47
-313.41
-315.2
-245.93
-247.2
-247.59
-259.02
-203.03
-210.85
-133.9
-115.91
-145.56
-128.65
-129.77
-139.9
-114.41
-90.61
-94.1
4.87
-22.87
15.81
19.36
14.86
-10.64
44.72
99.07
89.71
78.27
117.82
134.78
182.31
183.87
133.94
157.29
202.34
175.69
269.18
215.98
289.23
309.41
305.35
314.84
277.01
270.51
291.9
284.97
325
327.66
337.18
333.63
435.36
356.98
383.28
399.9
434.35
445.08
440.07
475.58
431.5
440.41
455.37
461.83
446.27
455.62
492.27
523.23
467.43
529.64
460.25
513.32
500
459.41
506.69
519.93
458.92
490.76
505.41
541.02
500.97
512.91
531.59
476.12
447.42
477.74
481.37
469.69
482.8
465.66
481.55
443.27
445.97
417.46
463.78
389.81
392.29
417.29
369.03
359.29
403.3
363.78
311.83
311.47
351.65
272.07
1837.15
238.04
280.6
261.39
259.18
229.39
175.62
218.52
179.1
203.63
202.23
101.93
148.23
107.71
77.34
125.61
23.54
91.39
51.93
-7.51
-27.72
9.83
27.54
-53.9
-21.5
-54.53
-113.81
-67.37
-140.38
-165.41
-157.53
-150.33
-138.09
-177.86
-215.14
-238.68
-267.31
-196.71
-198.71
-225.57
-243.68
-248.79
-281.21
-342.13
-356.85
-367.14
-296.36
-335.1
-326.56
-334.32
-376.33
-424.02
-398.56
-412.34
-461.82
-419.3
-485.14
-409.9
-472.14
-454.74
-443.61
-450.32
-427.39
-519.67
-507.59
-440.12
-478.51
-487.89
-489.4
-470.04
-508.42
-533.89
-544.18
-509.54
-496.18
-524.84
-483.24
-543.87
-530.97
-516.32
-470.26
-509.64
-448.11
-436.39
-432.56
-447.63
-472.77
-417.65
-406.21
-454.61
-442.43
-408.62
-464.03
-370.1
-400.77
-411.78
-421.63
-389.78
-342.65
-312.72
-321.74
-334.52
-361.07
-313.29
-246.18
-314.89
-251.56
-271.54
-272.04
-255.1
-206.92
-208.87
-177.51
-127.93
-170.76
-120.99
-157.01
-87.1
-107.37
-82.88
-74.77
-87.74
-54.45
-76.85
-1.58
35.04
0.11
24.14
69.56
39.57
45.64
109.97
142.51
78.46
163.52
112.71
143.48
134.36
169.64
226.14
189.59
224.69
200.67
235.29
300.21
251.34
287.57
329.51
361.04
303.88
323.72
369.53
346.72
387.12
403.3
362.18
363.73
375.37
404.22
419.11
443.62
405.5
495.97
423.81
466.77
422.26
507.87
1995.34
445.79
473.79
500.67
452.2
468.99
466.91
479.46
492.65
470.33
514.81
531.59
497.14
521.71
494.55
534.7
526.71
500.41
464.84
498.15
455.09
442.12
505.71
457.9
490.99
440.74
429.88
450.99
411.24
410.93
386.07
424.94
370.59
375.87
382.09
412.11
381.28
357.33
331.71
339.82
265.46
323.86
241.81
267.09
289.37
236.29
225.34
204.09
196.58
208.9
197.23
132.64
112.88
115.51
154.76
108.57
87.86
94.16
29.47
24.67
66.3
-10.09
-23.11
37.36
-64.49
-6.64
-105.13
-95.86
-137.35
-132.87
-98.2
-99.83
-138.92
-163.7
-149.62
-223.81
-206.21
-237
-188.88
-240.41
-279.96
-272.92
-304.99
-331
-297.77
-307.65
-347
-330.25
-314.3
-405.07
-375.41
-421.18
-441.32
-411.93
-368.01
-436.42
-449.67
-481.95
-430.93
-496.94
-471.84
-460.17
-420.57
-520.83
-509.79
-521.67
-514.78
-502.88
-449.92
-456.78
-460.94
-479.01
-527.19
-486.49
-508.95
-488.77
-471.82
-524.92
-479.18
-492.93
-470.72
-453.49
-451.88
-480.22
-510.86
-484.77
-449.54
-494.51
-435.59
-449.3
-470.25
-429.99
-394.38
-400.08
-458.52
-416.67
-445.94
-424.33
-359.96
-332.39
-375.63
-331.91
-314.15
-333.74
-267.62
-253.91
-269
-264.33
-275.97
-294.12
-269.53
-203.06
-187.63
-182.82
-169.05
-155.08
-130.54
-164.43
-161.64
-76.91
-53.49
-67.55
-45.49
-35.1
-79.85
-16.76
-30.54
1482
15.51
39.39
35.35
32.21
41.47
59.53
80.78
126.05
110.2
184.12
196.16
203.99
244.15
258.72
213.03
196.51
241.14
291.17
252.59
337.44
258.04
269.83
305.98
297.39
373.07
385.94
331.35
389.94
340.25
403.04
448.65
449.1
417.24
450.79
423.97
441.85
434
452.83
431.91
442.65
461.86
524.24
483.65
484.36
517.38
501.95
527.2
479.06
517.62
487.4
455.24
491.92
475.2
458.28
455.33
508.41
526.53
475.63
461.75
463.42
491.45
452.21
430.18
442.31
484.48
452.7
436.83
430.95
454.94
399.87
410.07
444.04
349.68
407.47
333.46
359.32
313.03
359.94
292.38
309.49
344.97
280.53
333.98
258.2
286.03
237.15
233.26
258.57
244.3
225.4
180.67
217.76
115.28
124.3
114.17
136.45
104.01
41.8
66.4
7.87
17.83
41.37
-16.52
11.07
-66.41
10.48
-65.95
-113.06
-117.18
-76.13
-97.57
-143.71
-103.66
-177.56
-178.8
-226.18
-164.45
-191.16
-265.64
-231.37
-299.99
-234.3
-268.48
-323.79
-293.79
-339.38
-336.76
-343.87
-378.84
-320.86
-366.65
-427.48
-419.83
-357.73
-369.67
-402.3
-459.83
-388.12
-410.5
-407.67
-438.07
-497.14
-430.18
-494.83
-450.65
-525.53
-510.97
-466.85
-442.12
-541.41
-493.64
-473.08
-513.08
-530.74
-537.94
-460.19
-505.55
-457.23
-522.38
-461.41
-484.67
-538.67
-458.8
-459.04
-528.58
1044.62
-465.52
-485.1
-416.25
-492.45
-478.86
-444.42
-407.72
-384.7
-460.1
-388.34
-419.51
-437.59
-344.44
-374.54
-310.58
-372.66
-328.61
-300.62
-314.67
-281.79
-291.72
-291.65
-238.16
-248.29
-277.75
-180.75
-176.28
-152.31
-136.63
-135.28
-194.7
-103.53
-158.25
-148.04
-58.89
-133.62
-36.1
-104.13
4.05
-75.05
-52.25
45.84
18.73
12.11
88.54
45.81
83.73
62.23
105.92
76.29
98.68
112.65
127.46
195.44
188.68
246.55
174.54
209.13
204.26
280.69
246.83
287.39
325.94
297.02
315.88
364.02
374.02
308.68
376.82
379.87
362.61
371.15
451.29
439.99
458.24
410.89
454.89
455.25
467.04
468.85
474.69
474.52
502.9
521.34
489.49
504.34
511.49
470.3
477.58
515.89
461.49
459.02
518.18
483.82
517.3
522.17
482.61
505.36
529.65
498
532.38
458.16
442.65
488.36
421.9
457.56
413.55
486.8
413.58
397.38
395.04
384.7
398.59
457.71
360.49
402.24
383.13
415.23
390.41
313.85
301.55
306.76
346.12
298.51
335.62
289.6
251.99
235.93
211.44
246.26
266.13
215.07
212.37
170.14
128.04
129.58
109.76
120.57
120.69
59.8
61.8
63.68
26.38
29.53
4.08
-22.21
15.96
-69.89
1.05
-59.9
-37.18
-56.85
-98.62
-165.53
-133.35
-117.94
-121.52
-186.91
-168.01
-169.59
-201.76
-236.99
-221.02
-287.56
-318.96
-254.18
1189.88
-277.24
-298.13
-297.24
-326.21
-345.21
-398.11
-411.5
-373.14
-362.98
-375.48
-368.8
-460.15
-422.18
-447.89
-430.7
-436.7
-500.44
-441.91
-430.86
-430.61
-496.47
-456.24
-495.13
-537.66
-493.1
-534.34
-474.91
-501.07
-527.27
-457.45
-460.45
-516.15
-469.64
-461.58
-529.36
-481.08
-523.45
-504.55
-476.8
-476.24
-526.4
-473.24
-500.44
-435.43
-426.82
-455.78
-457.71
-437.74
-404
-369.51
-379.09
-403.92
-419.36
-419.53
-355.64
-395.18
-346.82
-300.21
-362.39
-348.13
-275.06
-250.97
-307.33
-314.8
-250.51
-257.15
-259.37
-231.14
-235.77
-161.34
-226.62
-155.34
-173.5
-91.37
-135.4
-63.34
-132.81
-60.13
-69.88
-66.24
7.79
-14.95
-30
21.7
29.81
33.81
102.84
64.56
130.83
126.6
114.67
156.94
160.72
185.68
149.03
172.6
202.95
208.19
276.3
265.58
237.53
279.14
243.37
286.04
339.89
353.87
317.56
317.45
367.19
376.37
370
399.36
433.6
391.87
384.32
446.64
448.7
402.89
396.59
407.71
435.12
491.99
442.99
503.54
455.6
483.81
483.5
449.25
533.24
463.73
471.82
453.5
497.73
464.19
535.56
539.01
482.67
517.7
522.51
456.28
442.8
446.06
473.22
436.4
507.88
504.7
480.37
493.42
429.47
412.74
466.7
392.25
419.95
435.82
438.08
451.87
397.95
425.9
347.65
324.93
328.73
315.26
296.62
278.42
262.67
260.63
1824.49
308.59
250.42
221.12
191.64
265.65
169.42
154.33
224.85
191.28
144.12
91.53
149.09
135.32
96.07
46.39
17.31
57.8
65.19
42.99
11
35.44
-47.1
5.92
-50.88
-67.47
-60.88
-151.87
-115.55
-96.75
-125.42
-147.42
-150.96
-149.23
-189.78
-245.73
-278.42
-206.17
-262.63
-308.96
-248.98
-247.6
-285.66
-320.7
-322.72
-375.81
-304.1
-322.29
-361.38
-348.17
-419.13
-420.32
-453.52
-461.68
-424.05
-427.44
-436.09
-416.74
-411.15
-462.83
-447.82
-424.67
-464.03
-480.19
-471.74
-478.42
-467.27
-465.23
-511.9
-484.49
-451.25
-496.8
-533.96
-514.64
-540.47
-503.06
-447.09
-538.24
-537.28
-510.58
-526.3
-510.15
-518.92
-516.96
-471.48
-483.72
-454.57
-417.45
-419.68
-446.88
-450.27
-377.04
-441.86
-436.98
-413.67
-359.43
-413.94
-321.66
-307.88
-352.03
-304.2
-324.09
-317.73
-330.17
-290.96
-301.83
-261.15
-218.95
-271.08
-260.24
-196.74
-207.58
-144.94
-150.12
-180.63
-177.78
-125.79
-150.98
-89.05
-46.01
-42.48
-40.42
-3.7
3.82
-53.37
27.8
33.65
36.97
104.51
78.18
133.85
88.46
66.36
170.56
168.37
138.15
124.95
236.22
198.41
166.86
179.04
226.71
230.16
236.25
327.36
338.78
263.26
295.85
354.52
303.92
342.88
353.76
346.59
344
366.95
386.62
401.26
427.28
447.9
465.37
466.8
471.96
474.09
422.58
484.06
461.87
435.66
491.73
465.61
536.31
526.9
486.88
521.78
513.98
527.2
457.87
481.17
499.54
454.64
505.86
492.65
457.45
536.54
533.59
441.58
526.25
454.51
506.99
497.67
511.58
430.43
482.47
441.96
400.91
413.49
437.95
380.72
375.85
399.53
354.33
350.96
402.65
316.19
337.68
317.94
328.55
361.8
275.62
275.78
235.77
235.22
219.02
208
260.59
226.25
221.11
197.09
191.02
147.96
144.4
85.4
81.51
139.53
79.28
37.11
2.83
73.71
-19.82
-28.01
33.41
24.88
-63.95
-28.26
-60.21
-113.09
-62.54
-84.29
-149.37
-156.66
-188.79
-198.52
-210.45
-185.42
-250.6
-205.41
-273.69
-216.77
-265.51
-275.56
-308.05
-276.91
-363.67
-276.07
-329.57
-392.38
-379.6
-333.95
-330.65
-436.83
-403.04
-414.05
-439.55
-429.45
-437.35
-419.63
-403.87
-494.66
-501.74
-470.45
-474.8
-468.23
-462.12
-459.43
-532.77
-472.68
-516.11
-512.81
-451.74
-527.56
-513.58
-544.79
-463.63
-492.23
-465.12
-501.63
-474.33
-511.49
-533.64
-513.43
-512.57
-510.89
-457.56
-423.36
-499.53
-427.19
-449.21
-402.86
-473.11
-413.44
-451.26
-415.9
-367.66
-441.16
-340.77
-399.01
-398.15
-330.83
-387.92
-374.42
-313.55
-276.39
-301.78
-337.48
-266.58
-291.99
-262.16
-198.24
-235.27
-175.03
-168.77
-204.17
-209.22
-120.32
-175.58
-114.2
-81.82
-138.9
-59.47
-104.55
-42.98
-16.44
-30.59
17.67
1477.13
-28.36
66.65
21.56
112.51
111.52
58.38
75.94
169.74
98.7
145.64
156.3
213
150.23
179.87
257.16
187.51
257.68
228.53
317.26
238.57
306.87
336.84
351.45
310.91
357.02
333.28
380.21
361.76
374.88
426.02
403.36
372.49
452.68
397.57
455.18
464.49
472.46
468.32
512.24
430.66
451.5
503.07
503.06
495.01
491.32
497.34
486.58
526.31
471.05
454.93
542.71
494.63
511.02
449.32
530.39
465.97
479.25
485.14
440.62
517.79
496.62
436.3
455.48
492.53
411.23
479.82
417.93
469.72
462.06
467.9
404.75
381.17
384.49
368.23
382.25
354.82
314.57
328.21
309.88
335.71
312.16
275.96
338.1
329.95
293.8
207.66
270.66
215.99
265.4
247.49
142.97
178.37
153.75
115.02
139.44
134.91
129.15
77.96
26.95
39.25
78.25
43.16
-21.32
-44.48
5.83
-81.74
-8.04
-15.06
-126.29
-45.89
-102.61
-127.88
-99.12
-168.44
-154.92
-160.42
-158.86
-239.09
-200.65
-195.12
-226.47
-286.44
-315.2
-284.17
-297.65
-354.93
-311.64
-328.12
-323.21
-396.49
-391.73
-328.76
-344.74
-417.66
-443.68
-461.8
-376.65
-459.12
-470.73
-461.24
-473.07
-421.97
-508.68
-471.61
-438.13
-458.76
-452.23
-438.09
-509.82
-506.89
-446.99
-456.87
-476.47
-462.88
-506.85
-473.08
-506.69
-462.3
-491.43
-496
-471.91
-491.14
-449.24
-533.99
-472.76
-492.49
992.01
-466.73
-440.64
-435.75
-450.14
-403.8
-411.62
-403.03
-467.39
-399.98
-379.5
-366.15
-349.36
-337.68
-334.18
-391.83
-379.54
-339.65
-275.56
-277.43
-341.06
-234.88
-243.64
-219.01
-220.8
-187.98
-226.29
-155.5
-161.25
-165.57
-153.36
-184.24
-134.87
-94.47
-78.26
-137.95
-84.01
-49.8
-86
13.46
26.12
27.3
39.35
-3.72
21.55
69.12
97.08
61.75
96.45
141.3
173.81
136.79
167.34
152.39
152.32
206.44
241.12
242.02
234.01
217.82
237.2
254.11
270.39
304.22
309.04
281.15
304.88
327.29
326.48
351.43
343.92
396.6
429.86
429.81
377.33
401.33
462.07
491.55
428.03
464.64
475.23
474.04
511.18
433.96
443.85
525.56
483.73
452.64
452.43
484.9
460.75
475.91
484.3
462.68
492.74
501.26
500.57
449.72
502.35
532.67
509.51
484.54
505.44
470.75
491.5
499.85
502.95
421.6
439.46
455.4
483.38
394.38
467.28
433.53
406.62
381.2
411.45
326.57
399.51
343.61
314.41
329.65
284.96
324.9
322.15
329.24
306.03
278.41
207.71
191.62
230.97
240.64
211.58
227.79
153.4
184.9
142.47
105.94
101.49
111.76
67.19
74.1
39.1
40.57
-9.09
48.83
-40.64
-45.56
0.35
-96.71
-54.23
-108.87
-82.42
-105.81
-124.81
-118.02
-155.66
-214.72
-221.03
-173.55
-257.08
-241.27
-259.82
-225.61
-258.91
-320.12
-263.24
-307.37
-310.26
-339.83
-379.52
-385.23
-343.91
-357.51
-408.37
-374.98
-443.78
-452.77
-425.22
-383.17
-391.37
-443.88
-441.98
-418.75
-441
-455.16
-436.09
-508.55
-516.44
-494.61
-478.56
-482.2
-469.29
-534.55
-460.67
-499.71
-484.32
-482.8
-485.69
-514.37
-505.32
-453.09
-530.93
-513.73
-444.22
-530.49
-449.24
-512.99
-501.08
-464.35
-430.93
-421.84
-432.75
-458.71
-457.47
-476.94
-390.18
-426.2
-402.16
-405.21
-347.37
-370.95
-373.76
-343.38
-359.33
-296.14
-350.64
-300.42
-281.37
-288.73
-232.22
-224.76
-208.04
-237.09
-267.71
-174.04
-202.07
-177.57
-141.1
-181.19
-168.04
-105.15
-78.47
-80.02
-126.39
-25.97
-2.95
-43.43
-16.14
-46.72
48.58
35.45
-3.91
37.2
72.07
100.11
111.19
109.65
80
140.58
159.45
185.96
185.73
167.18
220.61
242.58
252.73
280.58
245.24
230.83
277.35
295.21
292.7
291.55
339.34
347.93
312.05
411.75
387.61
404.42
413.54
445.49
376.47
467.42
393.26
478.52
412.28
498.94
474.89
466.99
472.36
433.1
457
476.29
460.05
493.65
470.5
540.48
477.36
487.86
517.97
473.24
508.25
467.49
454.96
455.94
544.53
511.19
498.5
519.78
455.74
500.99
441.61
474.53
430.71
480.32
484.7
472.95
486.9
382.48
415.59
389.05
364
349.7
376.48
427.81
418.11
340.47
370.97
293.84
287.03
324.62
301.31
1787.31
320.63
246.08
208.36
212.82
251.69
201.62
236.71
176.75
169.11
172.6
96.14
93.79
159.96
125.28
41.31
82.67
65.86
17.41
57.87
29.83
35.73
-38.65
-66.56
-42.91
-91.95
-109.92
-64.88
-134.17
-113.04
-180.25
-119.09
-209.25
-231.35
-153.69
-237.84
-228.37
-220
-275.81
-287.74
-273.32
-249.07
-344.48
-339.55
-315.84
-366.23
-335.97
-323.77
-418.42
-418.21
-400.6
-430.24
-362.12
-367.06
-377.69
-439.25
-416.6
-470.76
-480.39
-430.32
-426.22
-436.54
-504.34
-470.41
-524.71
-439.15
-519.24
-488.66
-520.57
-522.56
-522.35
-462.77
-476.2
-526.79
-496.78
-521.48
-451.27
-467.67
-485.92
-508.32
-456.7
-473.08
-507.02
-490.47
-475.06
-466.1
-507.83
-490.22
-488.08
-477.16
-480.8
-460.05
-431.73
-360.52
-419.55
-395.96
-336.69
-366.28
-360
-317.83
-305.68
-373.65
-341.28
-352.61
-330.14
-286.21
-238.89
-221.13
-248.33
-202.84
-195.24
-201.15
-162.08
-219.02
-189.49
-131.21
-87.46
-89.25
-80.9
-118.25
-56.2
-32.55
-12.75
-43.89
-23.92
12.15
5.89
21.97
4.71
35.17
78.55
72.2
104.45
104.27
132.01
127.92
166.59
161.04
208.56
202.84
180.62
284.68
217.25
219.34
287.16
266.52
327.73
285.78
368.58
367.98
392.32
316.89
389.13
412.94
362.15
346.93
447.93
412.35
468.36
473.49
395.39
443.64
499.56
479.29
471.26
513.5
516.47
1976.1
492.64
495.78
466.14
477.69
470.87
494.13
522.81
483.63
528.06
486.34
488.96
483.13
471.8
530.59
513.75
461.83
475.66
487.26
453.25
466.41
443.29
458.19
426.48
494.16
399.47
414.24
478.66
431.43
389.86
429.61
412.9
401.1
384.39
327.61
374.71
319.45
353.41
297.56
289.18
297.18
318.03
277.47
240.62
291.68
288.96
234.91
233.42
180.83
164.46
134.13
159.52
141.73
105.06
143.16
107.52
99.51
117.35
20.95
38.21
-11.2
19.8
-16.73
-49.96
-74.87
-58.55
-24.6
-30.37
-93.06
-64.82
-136.42
-137.44
-157.98
-211.74
-154.8
-226.96
-168.3
-266.87
-245.57
-230.35
-308.84
-273.44
-273.29
-263.66
-301.25
-291.57
-339.57
-300.6
-395.63
-338.59
-359.38
-418.57
-373.66
-422.66
-384.37
-411.85
-385.15
-460.98
-442.65
-459.52
-502.41
-413.45
-432.99
-500.68
-473.83
-442.03
-514.85
-445.52
-456.62
-454.65
-448.71
-486.05
-512.76
-476.55
-503.93
-461.77
-478.98
-454.25
-527.31
-512.7
-509.77
-476.2
-490.35
-437.74
-495.47
-484.95
-463.56
-453.8
-462.02
-405.5
-436.31
-391.55
-394.9
-394.66
-412.06
-372.04
-386.37
-430.67
-385.86
-355.82
-396.94
-363.05
-299.09
-359.52
-330.38
-287.6
-332.15
-233.81
-265.06
-245.8
-269.63
-221.43
-193.37
-216.21
-194.33
-149.09
-124.53
-98.26
-107.38
-152.31
-75.59
-26.59
-100.71
-18.31
9.9
-10.71
19.79
16.24
64.73
66.32
72.37
106.34
117.34
130.69
83.52
163.43
100.3
195.25
196.09
194.67
177.48
201.1
276.61
207.95
293.1
257.03
269.86
338.42
324.24
347.34
332.28
336.96
337.89
407.57
374.18
421.36
378.73
384.98
450.13
438.87
399.06
455.89
473.69
435.87
475.3
467.82
420.41
428.49
456.74
528.31
502.58
441.84
473.74
494.14
481.41
485.6
477.85
471.98
495.27
538.99
468.48
452.81
474.48
498.94
445.21
454.92
525.7
437.77
433.79
462.8
467.67
427.91
428.16
441.29
394.67
411.25
391.09
412.33
407.75
444.44
408.09
373.32
362.26
363.32
349.15
338.32
350.71
318.6
306.01
328.54
323.5
262.34
304.15
215.66
199.02
191.83
178.07
192.11
155.68
176.84
190.73
174.18
74.16
80.6
127.24
40.2
88.36
2.1
79.15
-9.93
48.97
4.45
-24.67
-28.43
-106.24
-88.22
-50.16
-125.11
-110.67
-126.42
-124.38
-136.43
-138.66
-157.28
-233.16
-195.91
-263.47
-234.77
-265.1
-287.58
-317.93
-301.72
-298.55
-313.23
-347.97
-341.79
-395.15
-393.91
-413.19
-389
-420.64
-446.41
-418.02
-431.19
-466.24
-427.09
-398.61
-474.96
-408.11
-460.02
-484.49
-437.36
-513.34
-469.75
-437.26
-508.99
-492.21
-517.69
-525.41
-464.54
-492.59
-512.99
-538.7
-460.94
-523.89
-494.75
-545.15
-517.1
-505.92
-459.05
-506.41
-528.17
-485
1046.76
-443.83
-490.86
-419.73
-481.18
-468.55
-465.35
-429.54
-426.54
-425.95
-372.21
-346.98
-397.6
-406.69
-395.86
-363.57
-341.21
-337.98
-313.08
-357.79
-330.19
-263.05
-236.31
-262.77
-231.94
-250.68
-239.77
-188.22
-213.22
-181.18
-164.69
-116.14
-137.9
-95.02
-74.28
-123.4
-56.93
-36.42
-5.05
-15.75
-69.49
-9.06
-23.93
-14.61
23.18
77.93
112.29
48.36
80.28
147.84
166.9
146.3
145.49
130.93
234.44
157.96
173.18
204.57
284.89
259.19
226.15
295.08
309.5
304.24
331.38
299.93
297.58
302.61
368.15
404.72
378.96
382.45
396.34
416
448.67
395.34
458.8
472.24
439.6
444.2
423.3
515.02
488.37
512.81
505.02
495.2
496.8
501.62
444.31
449.35
515.13
453.6
499.61
450.22
471.28
541.34
449.83
518.88
469.82
531.55
507.94
529.36
532.97
502.34
464.63
438.63
446.9
447.45
426.84
420.39
426.58
439.12
445.91
401.09
402.72
420.78
375.5
418.59
406.77
385.38
337.86
298.74
360.07
343.83
333.48
241.07
260.13
272.72
205.22
265.74
217.26
184.6
162.04
230.24
196.39
199.43
123.03
93.08
86.86
96.85
93.67
81.66
32.86
37.23
-17.72
5.65
22.41
-7.08
-11.31
-53.7
-27.19
-79.6
-48.23
-97.03
-122
-112.95
-183.64
-134.55
-185.63
-217.23
-203.36
-263.11
-285.22
-266.3
-229.7
-287.9
-278.9
1211.26
-304.68
-349.68
-361.03
-360.99
-378.64
-395.3
-415.11
-405.82
-370.28
-440.97
-464.78
-442.86
-431.55
-432.89
-410.25
-478.91
-502.92
-469.61
-468.09
-489.04
-432.49
-458.5
-493.15
-527.53
-471.03
-542.13
-485.21
-467.42
-470.21
-496.82
-461.2
-507.25
-510.49
-491.75
-468.73
-519.12
-513.54
-461.03
-470.11
-509.47
-500.72
-443.95
-424.58
-442.72
-405.19
-463.89
-437.66
-403.75
-469.77
-429.5
-379.15
-416.01
-358.69
-430.27
-341.29
-359.33
-373.81
-290.13
-303.63
-299.84
-268.84
-327.89
-269.97
-298.56
-224.95
-290.26
-212.86
-192.42
-161.73
-168.93
-182.49
-127.57
-164.13
-90.16
-155.39
-118.38
-47.29
-23.78
-87.02
-25.25
7.57
-28.72
-40.53
23.3
9.92
13.24
57.72
30.44
66.53
82.01
90.84
155.06
163.65
120.29
175.22
212.35
201.93
206.94
231.63
261.08
307.28
318.14
296.81
346.54
295.04
342.59
316.26
368.72
375.65
395.82
329.2
412.56
402.15
414.69
368.61
440.81
471.12
479.54
468
467.97
437.41
503.82
463.22
496.7
445.42
524.97
516.8
535.52
525.17
521.94
447.18
512.31
503.79
464.53
515.17
497.64
518.63
456.3
511.07
504.64
467.55
485.8
515.06
511.64
484.99
511.11
464.25
477.32
433.09
494.88
402.76
454.77
414.53
375.41
389.56
397.6
390.54
420.94
410.98
337.38
316.51
330.53
292.31
339.59
346.96
249.18
274.32
229.76
270.52
278.91
208.56
181.59
189.25
140.26
151.92
159.51
116.34
92.76
122.72
98.33
132.85
103.72
21.44
67.52
70.23
-18.51
-37.48
0.67
4.77
-26.71
-78.08
-103.77
-45.48
-72.74
-80.98
-121.45
-108.68
-174.03
-155.3
-145.08
-162.41
-232.28
-233.97
-223.24
-245.38
-232.56
-298.9
-336.25
-261.11
-345.8
-286.34
-296.61
-353.63
-345.63
-345.34
-347.75
-378.41
-371.98
-435.65
-468.08
-388.27
-396.51
-408.37
-406.62
-460.8
-511.59
-505.03
-433.88
-474.03
-446.3
-514.52
-491.58
-446.15
-450.25
-525.08
-531.04
-476.56
-511.12
-495.79
-451.07
-520.57
-535.18
-462.92
-480.11
-480.25
-467.72
-515.16
-436.64
-434.19
-438.05
-491.89
-439.73
-437.02
-408.43
-419.02
-405.08
-430.72
-390.67
-386.09
-387.31
-346
-345.43
-355.08
-409.75
-355.93
-323.36
-326.68
-316.62
-342.67
-284.02
-318.24
-295.9
-261.13
-285.66
-182.96
-222.61
-192.05
-216.1
-127.42
-128.84
-180.16
-157.55
-93.47
-54.79
-47
-108.82
-108.82
-33.4
-79.16
16.96
-27.31
6.31
-17.42
58.1
105.97
77.34
83.77
138.7
118.1
86.84
100.64
162.16
148.53
224.41
160.86
172.77
281.79
249.2
271.28
265.77
266.12
340.6
319.15
274.58
377.17
310.07
387.88
360.34
381.89
431.25
356.75
393.42
383.36
468.12
427.32
470.29
428.77
473.99
483.54
464.03
482.89
493.84
2012.31
434.79
531.37
454.93
488.23
463.06
499.61
467.64
526.33
538.93
546.98
533.39
519.26
496.32
508.55
479.18
499.18
464.52
446.79
502.63
476.54
431.57
430.82
473.58
474.03
412.05
394.77
463.65
469.03
382.87
389.56
365.02
440.26
386.73
351.45
338.97
345.78
325.6
335.31
307.9
354.14
323.46
247.98
264.42
253.66
294.17
253.94
198.79
243.55
159.85
187.99
212.45
177.28
93.23
137.85
118
138.66
79.19
15.19
37.11
57.7
-1.12
-10.84
-52.11
-10.69
-46.89
-88.91
-68.59
-107.47
-94.95
-131.34
-154.78
-160.67
-169.98
-165.6
-152.21
-154.2
-247.58
-248.4
-263.71
-264.36
-219.12
-324.29
-320.58
-296.53
-283.49
-372.82
-371.03
-373.65
-406.79
-326.6
-378.12
-377.97
-373.05
-405.21
-407.45
-405.37
-428.45
-412.43
-439.84
-480.8
-468.29
-455.48
-474.11
-461.38
-437.11
-474.28
-528.83
-459.74
-487.03
-499.59
-496.14
-449.64
-464.24
-489.14
-539.1
-525.62
-508.65
-498.63
-502.43
-452.37
-524.06
-536.04
-452.08
-508.36
-480.23
-464.35
-511.75
-426.75
-410.71
-439.38
-412.84
-408.49
-389.07
-457.92
-447.16
-441.86
-377.61
-334.34
-411.41
-309.7
-297.04
-345.96
-300.86
-287
-313.15
-265.67
-274.64
-239.15
-206.51
-250.32
-201.27
-230.06
-159.04
-149.6
-140.35
-151.91
-114.62
-132.74
-84.78
-132.27
-61.17
-97.83
-5.12
-2.95
-44.76
-50.97
1511.29
53.56
81.73
63.89
98.78
117.75
131.05
158.92
130.13
155.4
117.48
154.07
223.47
228.29
253.35
266.22
276.99
301.84
260.21
304
317.2
308.75
326.65
288.84
306.92
343.43
400.8
394.83
421.09
392.19
366.5
406.57
395.65
418.76
460.19
420.95
484.22
472.31
453.14
435.7
474.49
458.39
512.26
533.55
489.63
454.22
505.38
537.07
497.31
511.84
534.9
547.54
454.62
491.39
543.69
459.35
521.62
480.9
513.31
449.59
508.45
491.61
477.84
515.2
426.71
467.83
488.66
448.13
439.94
450.12
414.37
378.59
359.84
374.47
347.91
330.43
361.18
331.35
348.67
345.5
366.99
343.94
280.22
242.13
264.92
266.84
258.11
237.58
178.57
171.77
241.87
195.18
195.07
121.38
145.18
119.75
159.88
144.07
98.32
22.53
47.06
61.61
38.06
23.65
-6.53
9.15
-28.22
-6.34
-67.75
-63.86
-53.08
-148.72
-169.15
-130.14
-131.05
-135.54
-222.79
-195.53
-216.69
-200.75
-241.28
-244.81
-255.78
-317.68
-258.96
-267.58
-276.56
-318.88
-301.37
-330.27
-401.09
-368.08
-329.62
-418.19
-391.48
-426.46
-407.48
-421.23
-389.12
-393.13
-410.9
-491.07
-414.21
-508.56
-439.65
-514.29
-510.37
-511.16
-437.08
-516.94
-455.82
-506.91
-460.85
-490.35
-527.41
-482.37
-520.3
-483.11
-449.88
-491.26
-500.71
-535.65
-485.09
-517.77
-473.63
-439.3
-514.07
-452.45
-494.71
-418.02
-461.84
-462.24
-486.15
-402.98
-469.36
-458.86
-364.61
-431.44
-428.03
-339.08
-418.17
-340.85
-337.24
-362.08
-303.62
-298.29
-271.23
-291.25
-233.78
-315.84
-235.99
-244.73
-214.99
-240.31
-190.66
-144.19
-202.8
-160.7
-163.03
-161.84
-83.36
-97.93
-47.52
-92.82
-40.32
-52.97
-13.63
35.7
23.14
-27.44
42.64
64.95
115.09
88.49
101.76
96.69
80.11
176.06
176.9
179.62
135.88
192.38
189.99
246.62
235.02
232.67
222.56
258.01
320.46
304.15
307.35
283.41
311.49
388.64
402.28
376.75
376.7
367.49
391.41
369.58
377.71
451.92
381.13
412.31
408.99
477.04
490.15
429.42
509.57
491.17
481.26
506.12
445.23
515.34
454.38
519.67
447.41
482.34
479.81
541.5
518.14
463.33
497.06
469.44
486.08
454.82
459.36
500.61
497.72
455.2
521.22
450.05
499.64
473.72
482.14
423.24
481.2
446.37
412.6
429.83
389.64
446.46
412.79
334.4
376.33
342.37
310.53
380.95
359.51
281.14
257.39
306.8
236.8
254.2
215.34
288.78
274.02
202.7
193.96
169.28
211.2
177.43
106.01
82.12
144.66
149.05
95.73
28.42
47.25
88.75
54.35
3.83
-4.13
-46.49
-58.39
-80.18
-68.9
-77.55
-57.88
-111.89
-150.13
-135.19
-141.5
-213.24
-201.14
-208.54
-203.16
-256.4
-201.99
-220.66
-258.08
-234.2
-245.24
1169.22
-347.17
-369.41
-318.64
-386.12
-393.84
-361.76
-325.99
-412.55
-363.54
-359.19
-389.82
-462.85
-425.57
-466.27
-448.44
-441.05
-448.76
-435.27
-505.14
-447.1
-519.12
-511.65
-466.15
-442.81
-495.61
-540.41
-516.8
-462.35
-500.34
-506.29
-452
-451.6
-463.78
-448.8
-534.23
-540.43
-466.36
-457.28
-478.61
-508.3
-436.02
-514.56
-476.64
-476.35
-503.65
-455.43
-489.34
-454.74
-462.99
-403.58
-435.58
-387.23
-415.08
-357.38
-339.97
-343.2
-347.44
-332.62
-331.67
-314.91
-336.92
-306.24
-291.41
-238.95
-217.43
-262.32
-281.72
-250.7
-162.2
-160.57
-159.85
-178.25
-168.24
-106.65
-86.96
-74
-69.24
-51.99
-34.77
-87.6
-43.61
25.11
-21.93
48.84
37.79
18.26
64.39
80.31
96.65
60.26
102.7
178.84
187.83
188.21
169.7
225.84
158.88
191.11
193.55
201.82
298.11
232.74
322.22
327.18
299.25
321.68
318.31
313.17
365.36
323.92
421.63
420.12
348.59
364.8
451.89
418.15
404.36
407.31
475.87
463.29
428.11
472.85
495.92
436.88
453.98
508.46
468.94
528.05
455.55
457.28
460.02
499.73
476.43
476.04
506.59
512.73
529.64
543.01
457.89
519.77
523.13
489.85
475.49
492.39
448.78
497.58
482.14
500.89
411.33
414.19
396.38
402.24
457.13
445.66
395.32
382.34
395.35
395.15
417.57
389.49
373.94
310.09
284.25
339.75
351.22
317.09
1805.01
315.34
308.11
228.45
198.83
178.24
222.86
173.17
141.82
133.23
132.78
174.37
150.47
79.55
139.74
118.04
84.06
11.4
49.73
12.68
-1.44
-56.51
9.87
7.19
-64.91
-84.3
-126.05
-67.3
-134.82
-145.87
-146.27
-147.25
-141.68
-217.88
-233.91
-217.76
-250.12
-250
-296.71
-292.28
-328.19
-247.6
-288.67
-362.61
-308.71
-306.17
-353.18
-347.73
-409.31
-343.41
-438.76
-406.31
-389.53
-454.97
-407.05
-479.33
-440.7
-491.22
-448.31
-500.23
-420.79
-457.33
-484.71
-477.62
-488.48
-448.22
-466.73
-461.97
-537.61
-474.12
-487.69
-477.25
-451.54
-505.22
-525.11
-530.62
-529.03
-464.13
-464.74
-443.73
-453.31
-450.56
-476.87
-462.61
-432.67
-479.18
-501.79
-466.8
-444.83
-411.47
-426.08
-393.53
-439.38
-383.41
-353.61
-427.32
-344.48
-324.32
-361.59
-300.42
-306.88
-329.35
-317.1
-343.67
-330.91
-250.97
-273.45
-297.46
-232.21
-180.3
-218.16
-169.48
-227.44
-148.72
-159.46
-138.06
-154.39
-94.49
-99.19
-92.55
-16.55
-54.43
-76.53
-53.76
-10.54
-12.13
60.63
-4.72
30.93
21.29
60.97
72.74
158.88
102.27
124.11
172.67
179.24
154.69
222.28
212.84
269.11
285.33
215.72
257.48
261.67
276.24
259.22
281.2
315.71
300.85
331.68
350.02
327.25
346.45
355.58
354.11
405.55
393.28
464.36
478.72
469.7
477.9
413.3
472.53
444.28
440.91
518.79
469.68
457.8
534.44
511.17
515.67
531.81
513.24
503.33
537.42
496.6
510.94
489.46
473.04
472.88
467.11
480.66
448.24
490.29
434.24
447.52
429.2
449.22
513.21
435.79
424.65
405.74
391.44
443.76
397.21
445.1
399.29
423.68
429.81
398.3
414.36
367.96
315.84
385
325.02
354.17
279.74
263.31
257.23
285.43
209.33
223.81
247.3
218.35
173.08
215.05
168.58
194.06
177.41
147.11
111.62
55.57
130.66
60.39
99.54
17.28
57.26
-15.95
-22.62
-39.33
-16.8
-25.06
-100.11
-63.22
-50.43
-99.33
-108.52
-120.97
-131.16
-180.68
-215.61
-230.16
-163.83
-248.39
-224.95
-223.32
-223.72
-297.1
-270.66
-299.05
-347.88
-339.98
-334.23
-336.28
-338.46
-329.74
-346.79
-418.76
-355.66
-435.18
-389.53
-437.75
-430.73
-467.67
-398.3
-406.08
-494.51
-488.3
-456.85
-471.58
-493.63
-511.38
-437.57
-500.11
-469.53
-477.21
-492.89
-482.34
-483.57
-471.36
-472.04
-452.55
-524.69
-447.81
-498.75
-445.18
-536.32
-454.01
-434.28
-436.79
-441.48
-492.62
-470.72
-499.51
-437.01
-489.09
-449.7
-407.6
-452.25
-368.96
-382.9
-436.07
-406.35
-422.3
-333.72
-314.27
-304.26
-383.12
-303.72
-308.89
-329.59
-324.42
-231
-275.31
-243.35
-245.77
-276.16
-254.62
-172.78
-206.93
-185.72
-110.4
-139.79
-98.2
-67.89
-92.21
-35.66
-57.12
-70.53
-54.5
4.05
-42.31
1496.1
8.15
39.47
10.46
99.38
63.56
90.74
79.62
138.74
166.19
104.92
155.52
200.95
183.98
207.25
228.95
223.58
211.53
236.31
234.88
280.19
290.76
320.63
317.21
362.3
313.74
368.03
361.09
336.62
415.7
436.03
371.29
403.98
447.5
457.41
448.63
415.82
490.13
449.53
479.29
486.64
441.16
527.68
527.46
529.26
538.28
529.64
538.57
452.54
464.61
511.06
475.7
479.68
475.48
528.83
478.38
518
513.55
536.59
490.66
462.14
444.8
451.55
467.08
463.39
417
420.35
496.1
431.08
414.39
447.8
408.63
376.88
425.27
396.12
391.76
411.48
313.05
389.66
378.13
338.55
320.83
330.3
283.39
251
290.14
273.43
219.36
202.32
229.1
249.54
172.44
200.98
150.54
118.88
148.32
88.28
130.4
106.25
33.26
44.96
86.17
53.77
37.98
6.82
26.78
0.45
-84.9
-87.65
-57.61
-137.02
-76.28
-99.28
-107.18
-176.87
-141.67
-173.71
-198.98
-241.98
-226.7
-203.19
-210.82
-290.85
-284.9
-309.12
-308.38
-269.91
-274.99
-287.25
-316.01
-348.55
-378.23
-414.49
-354.24
-424.31
-437.9
-373.68
-403.82
-467.52
-417.68
-431.55
-484.7
-416.2
-479.63
-460.54
-478.62
-444.92
-483.04
-462.05
-509.28
-538.97
-544.33
-507.2
-502.26
-535.43
-527.21
-512.55
-548.38
-481.43
-547.3
-496.75
-522.78
-520.37
-442.61
-511.51
-467.09
-449.28
1045.53
-439.25
-470.04
-424.57
-468.35
-491.17
-393.08
-462.98
-418.22
-452.86
-397.28
-422.54
-373.12
-371.38
-370.33
-316.89
-391.27
-294.08
-342.93
-352.76
-248.84
-298.65
-243.91
-307.4
-277.04
-202.27
-170.67
-222.65
-161.92
-197.58
-196.08
-140.57
-151.59
-78.47
-88.7
-113.62
-41.02
-27.31
-22.87
-20.6
7.04
-16.73
-13.5
62.35
80.59
13.67
83.01
51.43
84.18
161.57
130.1
176.01
192.08
139.15
141.27
159.25
176.67
237.05
220.45
293.43
259.81
321.81
271.98
264.64
301.72
360.04
305.18
371.82
332.29
394
398.12
429.65
379.29
420.15
442.19
425.52
468.31
459.08
452.52
416.03
439.06
491.57
442.95
476.67
484.21
482.93
457.55
509.07
514.94
458.97
524.12
513.68
547.76
473.69
528.73
507.62
499.77
497.79
498.1
470.7
450.43
448.72
527.88
483.36
444.75
507.05
492.68
496.26
495.19
449.3
459.83
386
468.23
429.31
432.85
435.6
395.38
379.96
341.93
396.57
358.43
317.55
304.25
298.6
335
335.16
264.6
268.72
288.15
267.42
248.41
175.01
187.41
184.25
206.1
139.54
91.25
170.13
87.47
45.62
28.59
34.91
58.15
55.4
-17.45
23.66
32.28
-25.12
-81.7
-82.32
-112.85
-54.84
-69.61
-105.92
-125.26
-118.9
-124.43
-214.23
-191.35
-211.2
-168.55
-200.66
-215.87
-234.72
-278.95
-279.45
-254.49
-347.11
-364.89
-348.81
-311.74
-323.25
-318.84
-338.47
-400.11
-370.08
-357.44
-381.23
-422.72
-430.71
-436.27
-453.92
-489.53
-416.35
-491.95
-425.64
-444.3
-472.1
-508.95
-530.11
-501.07
-465.52
-452.87
-524.38
-475.03
-448.92
-525.78
-540.78
-543.99
-480.02
-475.17
-454.15
-522.55
-488.55
-476.26
-454.19
-469.2
-502.57
-481.29
-500.11
-489.76
-440.06
-412.2
-464.04
-396.43
-381.36
-462.55
-398.09
-448.04
-417.23
-376.36
-397.37
-354.99
-392.6
-356.85
-318.41
-340.23
-308.24
-308.09
-240.32
-231.14
-265.38
-263.13
-255.81
-208.18
-254.08
-218.33
-203.12
-183.81
-150.73
-165.99
-147.89
-128.06
-144.69
-102.45
-32.47
-89.26
-54.69
-51.15
31.96
14.52
40.69
46.19
86.68
28.24
66.46
125.74
110.03
113.95
107.36
162.94
130.83
230.59
188.18
240.99
214.89
218.48
210.63
261.04
285.21
296.84
333.83
330.5
375.75
379.26
378.69
323.51
401.36
365.51
351.74
350.49
372.47
397.59
439.2
420.17
479.6
449.6
442.33
498.12
417.13
456.45
481.55
513
448.65
438.64
442.21
495.96
498.45
541.07
503.17
516.58
477.49
508.97
487.57
468.38
479.89
522.07
508.45
524.31
524.38
444.85
488.6
438.63
500.95
456.82
497.83
437.57
463.54
438.18
443.61
428.66
431.67
429.67
408.19
356.37
391.89
345.48
347.07
332.79
360.04
372.89
326.7
296.18
1818.7
260.3
263.05
213.18
268.27
243.75
223.03
157.17
232.56
212.92
141.53
149.88
176.72
153.61
94.26
112.88
35.54
28.03
70.97
-20.26
16.99
29.68
-21.83
-71.97
-92.08
-108.7
-44.37
-128.37
-84.05
-139.26
-187.04
-180.36
-213.81
-139.1
-189.64
-241.81
-235.34
-220.35
-231.58
-243.91
-274.1
-262.46
-252.07
-278.94
-314.55
-291.39
-320.72
-385.08
-345.17
-337.68
-357.99
-426.13
-415.44
-452.05
-449.13
-385.68
-449.96
-468.53
-469.87
-408.81
-425.17
-518.81
-481.13
-460.87
-524.52
-444.21
-530.15
-464.71
-512.06
-507.84
-534.85
-487.95
-469.41
-510.01
-514.11
-476.37
-537.39
-500.36
-491.25
-478.63
-458.38
-448.93
-492.65
-464.07
-486.62
-491.15
-413.01
-492.4
-447.28
-398.46
-400.67
-396.96
-412.09
-385.93
-372.38
-404.25
-353.83
-343.21
-386.65
-386.23
-375.87
-292.16
-298.95
-341.89
-319.15
-297.98
-278.39
-298.13
-252.24
-249.58
-218.51
-197.2
-154.25
-159.43
-154.01
-124.56
-157.94
-85.64
-148.66
-41.42
-46.55
-73.22
-25.54
-44.19
36.12
17.32
-19.5
-4.9
73.35
35.17
41.22
75.06
129.78
84.46
145.02
173.06
161.75
228.97
184.64
237.09
197.18
191.4
234.2
221.38
324.05
293.88
332
347.86
304.84
299.26
380.03
324.67
413.08
425.56
432.97
438.63
420.95
386.89
468.52
382.97
395.01
457.53
424.49
423.29
469.56
463.8
476.23
1942.91
495.77
470.83
453.19
499.89
511.11
487.21
453.96
470.09
541.38
454.81
471.58
465.79
460.75
471.88
474.59
519.45
494.29
491.12
511.25
427.81
466.61
455.44
476.52
415.67
441.61
413.4
473.39
439.88
380.62
402.04
438.72
370.47
344.91
366.64
405.36
389.36
350.18
373.03
304.57
348.29
276.38
323.74
294.43
288.16
270.97
185.8
208.43
187.24
213.18
219.24
124.35
153.03
155.01
116.23
119.81
126.61
58.34
44.03
-0.31
62.49
-26.59
12.58
-59.01
-33.43
-87.17
-71.78
-41.99
-134.19
-153.2
-149.2
-123.92
-182.61
-176.25
-146.55
-242.41
-159.62
-248.47
-193.02
-267.22
-290.56
-292.64
-285.4
-299.09
-269.26
-309.9
-335.76
-294.49
-309.89
-325.58
-377.98
-374.83
-401.56
-359.02
-435.62
-453.03
-454.96
-406.2
-423
-401.97
-467.72
-418.96
-449.46
-487.98
-451.77
-516.4
-511.13
-518.93
-516.11
-511.65
-526.7
-474.48
-512.4
-544.69
-536.42
-538.82
-504.9
-516.17
-523.38
-490.24
-469.69
-502.06
-444.18
-525.18
-488
-478.3
-452.63
-504.96
-464.22
-466.96
-437.91
-446.25
-424.92
-464.43
-390.27
-377.45
-429.68
-338.77
-387.47
-342.92
-381.38
-389.32
-375.46
-300.1
-298.2
-270.53
-277.26
-297.59
-302.73
-242.54
-191.28
-217.54
-244.05
-150.19
-218.45
-132.84
-156.04
-147.39
-122.99
-113.82
-43.73
-110.13
-83.71
-40.4
-4.81
-48.21
1477.63
-13.42
-15.04
72.76
44.78
122.71
124.47
134.24
94.78
182.43
153.65
209.34
134.87
203.23
239.02
195.92
195.08
280.43
223.15
272.02
319.62
251.54
321.27
326.33
369.63
316.57
396.02
327.74
416.34
340.34
388.9
372.88
424.5
442.9
435.22
461.97
477.7
479.56
419.2
484.12
474.58
465.37
521.09
520.34
501.42
477.55
496.66
509.37
502.69
466.58
525.13
494.89
539.7
496.04
492.55
505.48
540.89
539.54
514.03
525.62
518.86
495.44
479.67
490.69
482.56
470.49
502.34
452.47
489.87
442.52
454.44
433.86
370.36
395.64
437.49
336.25
338.64
356.37
321.72
388.66
308.32
278.75
298.93
326.78
244.3
250.17
296.98
245.83
281.02
204.84
226.08
187.98
161.06
195.53
141.26
120.38
99.14
83.53
66.59
28.56
87.11
87.48
79.08
52.7
20.52
-36.25
-50.87
-13.52
-97.77
-94.18
-38.78
-106.87
-153.2
-159.57
-132.62
-209.65
-143.68
-234.43
-198.97
-205.23
-238.24
-258.1
-282.26
-254.53
-271.2
-312.73
-281.77
-352.61
-318.57
-383.56
-315.6
-381.61
-373.69
-387.61
-399.67
-424.37
-365.02
-463.94
-400.37
-414.56
-456.5
-406.63
-409.43
-430.01
-496.76
-494.55
-441.25
-441.55
-468.81
-497.11
-510.6
-510.11
-489.47
-464.88
-531.61
-518.85
-498.9
-493.74
-501.54
-535.53
-467.72
-540.03
-513.34
-470.9
-501.19
-532.5
-481.48
1061.8
-456.72
-477.54
-431.77
-415.71
-456.47
-466.65
-473.02
-416.6
-377.35
-448.31
-408.7
-413.91
-330.75
-366
-348.91
-296.09
-290.2
-275.54
-309.77
-334.86
-291.28
-256.14
-262.74
-221.08
-282.75
-176.05
-258.92
-160.28
-190.96
-149.94
-187.07
-108.56
-135.23
-111.72
-77.56
-122.91
-66.76
-8.92
-5.25
17.87
-3.64
52.78
-2.8
62.69
44.33
46.45
103.17
73.83
107.42
135.28
132.75
184.67
219.1
225.13
167.17
184.27
215.15
235.14
238.96
309.93
277.86
264.39
294.01
308.63
306.76
355.22
349.3
369.72
375.37
382.58
375.92
431.35
414.67
449.02
469.11
454.44
436.87
423.52
420.51
494.07
437.65
457.68
486.57
459.64
524.57
514.71
445.05
483.25
539
495.45
473.48
467.94
498.19
456.97
527.34
487.56
472.47
492.34
495.05
444.48
517.03
435.85
517.74
522.26
514.17
427.89
410.51
450.88
493.69
401.92
390.22
427.38
374.27
432.32
424.48
380.68
329.83
339.97
332.94
377.55
350.91
307.16
308.52
262.93
335.04
293.14
289.73
285.43
283.89
235.58
182.15
239.7
213.5
207.26
121.99
96.95
149.91
103.96
52.95
112.67
37.09
18.62
11.11
4.22
40.18
-57.24
-30.53
-55.12
-84.53
-84.82
-42.64
-51.3
-100.14
-103.07
-153.79
-202.34
-194.62
-148.04
-153.75
-209.19
-187.99
-233.81
-241.26
-237.7
-279.85
-314.21
1190.77
-318.11
-332.75
-366.89
-352.36
-392.47
-409
-346.46
-408.82
-368.46
-407.34
-382.37
-421.18
-452.62
-392.77
-408.22
-499.02
-421.6
-440.84
-484.51
-468.18
-456.58
-483.42
-442.14
-506.59
-475.42
-528.79
-487.13
-468.25
-458.8
-478.92
-541.22
-519.44
-458.44
-449.73
-470.49
-530.85
-533.97
-507.21
-513.23
-525.4
-481.52
-474.21
-507.17
-426.4
-462.68
-410.55
-393.66
-473.75
-435.26
-427.13
-407.11
-367.19
-407.99
-345.84
-402.1
-318.53
-392.75
-370.43
-281.98
-356.99
-353.16
-340.43
-247.73
-292.58
-228.89
-284.18
-251.19
-174.32
-180.81
-138.32
-157.41
-207.82
-102.01
-166.33
-153.93
-136.12
-49.33
-52.21
-70.08
-64.45
-1.24
22.13
11.96
49.89
23.06
67.83
50.26
33.73
122.48
65.34
87.81
179.29
157.37
126.06
141.96
245.19
254.87
225.52
214.3
286.54
236.16
296.51
238.15
285.37
292.1
356.23
307.92
375.6
310.11
403.47
331.62
359.42
395.97
442.08
431.68
450.78
426.68
430.49
430.33
486.21
419.84
505.24
484.95
468.7
430.93
498.82
480.45
481.53
463.18
495.88
517.56
536.28
495.96
496.59
483.2
518.7
507.69
500.26
528.14
449.7
449.07
448.08
485.12
482.61
481.79
496.63
430.98
471.07
491.85
481.17
424.21
479.21
462.61
382.37
446.6
420.94
367.47
393.72
340.84
314.13
394.84
351.07
339.21
296.37
327.41
1787.97
319.74
302.14
300.58
221.08
237.28
234.64
224.52
188.86
170
179.54
157.14
153.82
119.29
120.22
38.36
117.88
57.06
63.69
49.25
53.99
31.61
-50.85
-59.82
-39.84
-29.58
-101.87
-113.84
-133.98
-83.56
-144.61
-189.61
-208.13
-154.34
-149.14
-172.45
-192.57
-190.3
-227.27
-297.41
-225.43
-254.49
-327.47
-321.69
-292.64
-318.58
-385.81
-311.71
-315.76
-339.52
-398.76
-345.01
-442.08
-383.37
-380.31
-452.96
-456.43
-460.42
-449.15
-447.43
-422.67
-433.19
-467.49
-469.04
-517.42
-510.01
-442.7
-491.15
-537.19
-538.64
-509.27
-492.01
-527.66
-528.17
-513.07
-457.12
-498.35
-479.15
-464.82
-511.14
-489.77
-445.69
-480.93
-509.01
-464.25
-469.52
-413.69
-459.41
-482.99
-454.91
-459.9
-457.61
-431.94
-452.15
-392.82
-416.78
-366.08
-361.53
-332.52
-345.22
-319.45
-316.09
-337.73
-285.29
-252.97
-310.59
-229.29
-293.52
-241.37
-196.77
-185.72
-197.36
-198.27
-211.57
-145.62
-110.68
-176.8
-130.07
-142.17
-109.19
-64.63
-26.91
3.35
-2.83
-29.77
-3.91
-31.01
35.1
29.03
11.84
89.23
51.5
92.75
95.38
111.9
162.23
119.67
221.97
180.58
187.24
222.45
246.73
198.85
214.3
279.55
327.64
320.18
295.22
336.06
376.04
306.95
331.83
366.86
383.82
393.36
380.68
424.61
409.19
450.65
428.8
462.99
397.27
446.14
419.16
458.36
430.52
446.61
2018.55
502.64
486.54
518.72
540.96
445.43
471.12
545.9
455.16
531.34
504.42
502.87
495.95
522.05
464.42
454.92
534.7
495.95
523.32
459.37
512.41
453.22
465.56
499.55
408.19
452.99
449.42
452.55
427.85
467.69
380.61
379.13
358.72
395.33
334.34
397.56
350.28
362.32
366.72
287.29
267.72
279.03
324.95
227.47
287.87
278.41
268.58
191.28
241.63
180.25
224.26
207.35
172.54
132.91
156.65
156.72
61.93
69.83
78.48
14.21
36.79
-23.05
39.23
-29.06
-46.78
-55.96
-46.97
-50.69
-96.56
-54.45
-70.21
-96.29
-98.99
-194.68
-218.21
-228.39
-173.23
-195.84
-264.48
-198.28
-292.73
-258.13
-274.73
-321.73
-259.13
-291.72
-365.14
-299.27
-366.09
-385
-395.85
-395.07
-362.71
-397.92
-424.9
-379.25
-435.89
-413.75
-449.05
-490.37
-415.66
-454.97
-505.97
-509.69
-517.93
-463.8
-464.06
-498.81
-492.38
-445.2
-482.85
-473.51
-496.37
-454.45
-526.6
-457.67
-479.74
-538.38
-478.38
-542.92
-513.31
-538.17
-481.94
-449.76
-428.8
-499.56
-514.42
-497.12
-432.09
-498.95
-411.46
-414.56
-470.15
-460.47
-400.81
-427.68
-361.06
-399.5
-349.64
-339.12
-323.6
-390.35
-286.76
-292.1
-346.57
-320.27
-263.58
-311.72
-278.42
-253.92
-213.16
-250.68
-163.04
-148.92
-169.5
-203.05
-116.09
-152.03
-106.46
-102.87
-108.02
-127.02
-111.02
-46.22
-75
-34.06
26.65
1477.32
29.92
73.73
101.02
108.31
101.93
110.77
133.62
172.15
187.49
176.85
123.23
164.68
185.82
202.5
190.37
261.33
286.52
292.39
280.81
289.87
277.39
315.62
369.69
374.46
335.48
360.06
380.26
358.85
393.07
397.11
381.05
456.91
450.37
436.54
467.31
448.36
474.61
461.24
495.86
439.48
483.59
496.74
503.2
498.03
486.77
505.78
484.08
545.19
535.67
537.74
486.99
487.65
479.35
529.67
506.46
539.23
499.57
479.11
442.89
449.91
436.01
471.72
439.51
429.88
458.8
485.63
445.74
397.03
427.58
433.45
405.09
437.39
435.65
340.82
389.02
403.73
392.76
389.76
289.58
304.24
281.17
308.59
265.23
261.39
310.36
220.15
190.88
237.17
259.46
158.79
214.54
152.39
192.71
164.2
157.95
112.56
118.46
94.58
85.16
81.07
57.06
47.27
52.22
-30.4
-11.72
-25.96
-29.67
-26.26
-101.99
-82.31
-130.36
-158.69
-180.01
-110.48
-167.51
-204.94
-221.97
-175.48
-212.76
-237.29
-202.67
-238.98
-319.89
-240.2
-284.17
-274.38
-363.49
-365.81
-306.71
-386.22
-372.94
-408.57
-356.96
-402.97
-395.69
-380.6
-436.79
-466.27
-413.15
-448.71
-413.78
-431.05
-460.57
-499.43
-497.67
-520.61
-498.92
-521.61
-489.78
-496.13
-529.38
-476.41
-491.49
-468.5
-474.56
-492.28
-503.1
-512.57
-514.28
-517.32
-490.23
-465.3
-488.3
-459.59
-487.94
1000.35
-444.94
-492.62
-453.56
-446.91
-430.21
-456.05
-419.55
-457.41
-432.78
-385.8
-435.74
-387.17
-394.02
-378.12
-388.71
-384.14
-368.13
-366.03
-278.2
-258.8
-249.34
-323.11
-277.22
-247.69
-198.96
-266.75
-253.76
-162.6
-180.11
-192.45
-206.41
-182.73
-129.18
-68.61
-149.75
-82.94
-71.05
-43.9
-67.4
-63.78
18.95
52.82
31.49
12.58
11.47
65.7
115.54
91.02
136.95
103.22
126.14
109.6
148.86
145.68
225.1
161.43
261.77
275.85
287.35
284.46
314.22
243.59
345.88
341.65
310.01
376.36
371.7
343.72
409.43
332.5
349.72
378.76
454.28
400.88
431.83
420.36
454.79
427.08
424.64
414.85
430.62
482.77
517.05
504.58
462
513.61
470.59
510.04
516
525.26
476.06
461.26
472.42
546.22
510.76
537.29
506.01
512.91
506.89
489.85
527.15
466.41
440.44
487.52
452.09
427.42
463
483.01
398.08
455.96
468.97
467.24
435.21
372.23
413.53
391.28
391.93
335.75
324.34
386.38
372.84
284.28
310.59
294.73
250.92
270.39
260.18
247.7
223.03
204.22
221.07
168.27
236.07
178.88
132.96
121.63
129.92
104.57
77.22
63.14
110.4
63.8
13.23
74.36
-29.06
10.98
3.95
-34.21
-3.29
-56.59
-111.69
-124.3
-120.89
-79.2
-156.01
-128.83
-176.53
-174.47
-156.7
-164.64
-242.96
-227.81
-227.27
-224.75
-242.34
-263.25
1164.71
-301.23
-355.41
-321.05
-377.16
-337.06
-361.02
-348.55
-356.5
-395.15
-371.49
-390.85
-393.56
-412.08
-448.52
-406.2
-476.31
-432.42
-446.57
-455.22
-424.41
-439.26
-531.91
-490.56
-473.52
-485.22
-510.37
-484.79
-457.18
-465.57
-495.48
-484.53
-497.35
-525.8
-493.35
-487.46
-537.87
-515.84
-462.26
-440.02
-504.15
-490.78
-453.99
-457.64
-437.99
-478.02
-435.18
-449.99
-400.84
-453.85
-402.66
-400.9
-423.92
-425.49
-367.98
-358.79
-382.36
-347.3
-391.01
-286.22
-283.67
-313
-280.92
-324.35
-272.97
-288.62
-229.93
-276.26
-230.73
-233.24
-146.8
-131.15
-170.62
-162.05
-114.54
-87.47
-89.33
-79.93
-40.23
-106.52
-85.11
-38.58
-34.17
20.11
22.48
56.88
94.77
97.48
99.83
42.26
94.25
152.32
137.73
120.17
147.51
164.7
180.68
207.98
251.88
253.91
254.34
272.54
258.91
261.05
310.24
350.06
328.43
304.29
391.24
338.2
361.35
417.94
387.84
375.02
400.08
423.97
432.84
446.83
481.84
487.33
404.37
473.99
491.6
461.64
505.76
516.8
520.77
501.66
505.3
501.34
485.97
480.06
467.68
506.92
488.41
522.72
495.88
464.21
454.91
506.6
515.06
512.62
475.47
442.06
441.14
510.05
487.16
455.73
455.9
461.03
461.1
432.96
441.22
432.29
456.91
422.12
427.93
412.15
402.07
403.28
346.27
396.25
353.88
285.28
360.78
286.41
280.46
1790.87
256.88
278.08
206.47
205.14
210.36
252.93
179.31
150.71
205.78
110.33
92.67
83.39
101.22
61.85
101.41
16.55
16.44
15.4
11.69
-32.58
35.59
-54.97
-49.81
-10.06
-51.74
-85.77
-133.59
-81.81
-154.5
-100.9
-154.84
-125.55
-154.12
-194.29
-195.14
-202.5
-219.78
-222.96
-248.86
-251.24
-273.97
-350.83
-309.2
-337.5
-329.96
-368.72
-374.64
-389.55
-415.95
-394.18
-449.19
-418.23
-374.38
-400.45
-410.49
-424.91
-469.66
-444.09
-493.18
-493.82
-498.93
-481.18
-509.15
-524.62
-499.36
-483.85
-526.75
-476.49
-452.6
-460.39
-508.14
-517.47
-485.11
-474.82
-465.46
-448.88
-535.95
-448.62
-472.04
-522.82
-497.97
-525.18
-431.24
-498.72
-497.89
-418
-477.81
-490.98
-388.91
-479.23
-404.22
-373.62
-366.78
-365.12
-337.93
-398.82
-323.08
-399.64
-298.74
-383.32
-312.26
-284.71
-318.98
-245.12
-311.83
-291.95
-283
-268.43
-225.16
-160.85
-187.83
-177.87
-143.2
-194.58
-129.41
-82.26
-105.57
-122.8
-107.42
-36.65
-48.74
-47.07
-45.98
18.96
56.83
54.48
63.82
62.12
52
114.55
82.3
76.51
155.27
124.14
183.04
208.01
146.91
169.4
197.9
247.6
193.75
234.89
309.31
305.91
245.12
315.31
292.84
310.38
366.9
391.31
373.28
338.67
337
410.91
394.38
366.32
402.18
456.14
445.66
418.56
414.13
499.95
416.67
433.41
453.69
1973.68
474.63
518.28
520.72
529.7
450.35
538.91
447.96
463.69
484.45
461.56
453.66
549.32
520.92
521.04
515.89
494.5
466.02
471.9
476.35
431.55
444.85
487.68
478.38
491.76
471.41
485.53
446.13
428.46
395.07
404.28
378.66
360.75
436.73
423.72
349.41
400.53
352.37
382.44
281.95
330.77
314.95
320.52
255.72
312.88
267
268.5
226.53
241.05
192.76
158.56
148.3
136.13
92.46
138.58
90.77
136.17
120.53
47.79
77.58
45.21
-14.29
54.76
16.65
-7.38
-55.92
-56.98
-96.74
-90.41
-98.13
-88.29
-89.19
-114.15
-110.45
-175.68
-215.8
-196.74
-185.27
-270.86
-193.18
-206.88
-252.31
-233.25
-250.89
-253.77
-285.43
-322.8
-296.73
-332.42
-357.46
-362.02
-372.14
-342.02
-351.47
-383.67
-369.7
-429.3
-474.96
-442.46
-486.26
-411.57
-417.76
-501.04
-456.44
-523.66
-435.98
-505.45
-512.49
-441.63
-499.04
-477.44
-485.04
-534.59
-528.67
-537.7
-520.12
-483.16
-535.16
-451.22
-543.45
-533.37
-516.05
-450.35
-481.55
-431.82
-470.32
-445.7
-466.49
-437.28
-405.25
-431.33
-410.57
-462.05
-374.99
-441.96
-402.69
-367.44
-439.28
-409.93
-339.95
-375.59
-367.68
-341
-318.07
-282.96
-352.31
-267.14
-277.03
-232.97
-247.07
-290.5
-232.33
-256.92
-168.91
-218.76
-148.49
-128.95
-153.3
-142.28
-94.58
-125.22
-67.39
-44.66
-77.74
-77.27
-4.01
4.04
1516.8
64.99
-2.58
8.23
29.06
52.39
141.23
79.38
90.09
135.82
104.47
186.54
181.85
198.08
258.12
265.4
266.99
295.95
270.13
316.69
318.3
251.26
360.87
293.82
317.34
323.85
360.85
397.51
408.05
343.23
422.03
356.51
369.23
401.99
385.72
465
459.77
473.42
425.17
509.92
488.3
426.82
430.47
525.2
498.29
502.44
521.03
504.46
529.11
518.07
502.2
479.98
509.72
486.87
471.32
452.38
459
503.06
446.79
526.55
473.3
502.03
442.23
439.46
501.4
463.26
421.73
424.86
425.14
464.51
411.67
410.55
389.66
366.32
355.11
344.52
370.45
333.15
325.26
356.61
341.9
299.12
324.16
276.18
313.9
255.43
286.3
265.07
201.53
205.03
163.63
196.97
214.53
157.37
129.78
91.89
142.28
112.72
113.63
108.92
43.15
54.17
76.12
35.07
-12.12
30.07
-77.88
-39.08
-83.24
-70.13
-118.86
-104.71
-111.9
-108.21
-104.53
-184.4
-179.51
-154.95
-167.25
-217.71
-261.62
-228.45
-251.11
-242.84
-282.77
-264.45
-312.05
-332.06
-369.51
-336.9
-323.66
-400.42
-408.66
-372.71
-439.71
-396.69
-363.95
-371.63
-472.99
-450.29
-441.45
-499.45
-497.52
-437.4
-452.13
-520.19
-469.77
-488.95
-513.08
-508.89
-490.99
-482.08
-464.93
-515.33
-504.06
-490.37
-546.72
-518.42
-451.53
-496.19
-467.24
-496.64
-535.31
-439.83
-480.53
-448.34
-509.83
1003.89
-467.19
-447.69
-462.43
-461.05
-438.47
-463.58
-384.97
-427.45
-368.62
-413.4
-394.08
-412.01
-326.23
-326.46
-367.75
-317.81
-337.93
-326.84
-340.97
-307.9
-273.23
-267.4
-269.06
-221.63
-213.02
-266.17
-221.35
-157.04
-148.81
-205.25
-171.85
-85.5
-141.12
-76.84
-49.53
-30.12
-107.01
-48.75
-29.36
1.62
7.62
50.61
23.11
54.67
18.55
118.96
100.34
71.69
140.35
154.4
104.12
203.84
160.97
233.39
217.52
168.74
267.34
256.47
244.65
309.69
332.46
283.81
275.75
273.47
375.21
347.95
322.34
368.66
394.25
406.19
391.95
417.24
381.65
423.54
438.77
462.23
399.59
427.54
494.93
477.41
452.64
477.5
479.63
525.95
534.34
478.44
512.38
471.39
485.61
538.26
466.19
484.28
513.26
480.59
505.76
512.73
474.47
464.27
494.78
462.37
472.15
471.94
485.2
458.34
455.35
463.25
449.61
450.54
489.73
462.7
457.51
409.99
402.33
393.47
396.9
384.38
347.02
409.59
394.37
320.77
343.12
280.72
271.32
276.88
307.97
296.25
308.07
241.33
263.33
230.49
237.19
239.86
159.39
197.69
129.23
152.04
83.79
151.38
110.29
57.29
59.89
67.19
27.12
47.14
-40.18
-57.14
11.19
-64.55
-65.3
-70.92
-115.34
-90.95
-71.76
-100.38
-192.86
-129.48
-185.38
-203.63
-154.19
-189.18
-261.9
-238.94
-259.73
-264.63
-243.18
1160.04
-262.92
-330.89
-290.04
-375.61
-385.8
-394.11
-332.56
-415.83
-374.8
-371.1
-365.95
-414.63
-423.67
-420.92
-416.08
-435.78
-462.83
-446.3
-424.05
-486.59
-426.71
-464.29
-496.32
-482.63
-495.72
-449.4
-521.34
-528.51
-452.2
-458.22
-491.81
-525.45
-491.34
-452.65
-465.41
-472.43
-455.02
-476.06
-455.09
-524.86
-438.64
-432.28
-505.67
-503.14
-491.32
-480.38
-447.61
-391.55
-452.64
-382.98
-397.51
-421.33
-409.84
-387.45
-352.42
-381.81
-405.78
-389.68
-365.15
-332.09
-343.93
-255.22
-316.2
-307.02
-249.07
-257.29
-207.82
-248.88
-167.46
-216.52
-218.83
-173.59
-172.54
-152.74
-155.54
-85.73
-60.8
-81.76
-48.61
-40.88
-2.44
-4.4
-46.16
-14.62
-14.02
36.36
58.31
52.63
40
61.32
82.43
175.3
125.09
153.77
169.79
178.17
247.46
176.52
182.7
248.28
249.79
238.61
269.59
275.28
338.04
288.22
358.28
354.79
387.34
386.16
327.65
374.38
418.76
433.73
374.48
408.7
451.49
429.61
461.96
445.28
494.36
480.35
463.25
507.13
441.49
513.49
473.04
481.49
537.01
508.95
501.1
448.83
522.05
503.7
512.09
491.79
462.57
529.9
484
453.08
535.04
536.31
452.42
503.37
451.79
457.32
486.24
507.9
496.99
497.41
431.41
466.47
458.66
442.62
381.11
398.08
380.99
351.79
369.12
356.73
312.45
339.5
305.45
280.17
287.46
334.15
1838.03
280.23
306.48
283.99
275.57
217.76
240.34
241.55
148.93
205.19
176.91
146.13
110.21
121.65
110.49
92.93
29.71
80.97
36.2
49.08
-36.21
-42.46
-8.68
-58.41
-25.66
-92.1
-78.88
-142.31
-113.1
-114.47
-183.72
-186.55
-216.92
-160.04
-159.87
-190.25
-202.53
-258.62
-284.83
-280.39
-277.75
-250.82
-273.34
-328.29
-327.4
-304.28
-360.82
-356.35
-338.38
-332.94
-355.64
-421.82
-375.89
-447.41
-374.19
-421.25
-444.43
-410.87
-413.87
-438.1
-476.42
-443.32
-437.59
-522.96
-483.29
-535.49
-538.74
-491.57
-495.46
-504.35
-475.35
-490.36
-480.02
-499.72
-533.73
-539.53
-461.11
-501.84
-461.91
-536.42
-474.07
-491.39
-503.78
-458.08
-482.78
-469.62
-411.22
-440.43
-475.78
-440.39
-439.68
-425.18
-449.68
-440.28
-427.47
-439.78
-415.41
-376.49
-386.52
-368.44
-344.69
-370.02
-267.47
-346.32
-291.78
-320.54
-267.55
-302.2
-265.38
-246.67
-222.17
-170.85
-199.33
-142.17
-140.77
-178.45
-173.34
-96.19
-149.84
-106.88
-89.95
-55.41
-86.4
-23.43
6.44
-38.05
10.73
55.89
7.12
71.87
49.76
108.63
146.37
135.79
97.11
146.76
202.49
175.41
159.94
219.14
200.29
271.03
208.71
248.53
234.92
286.96
263.09
331.36
350.59
373.85
390.9
333.64
396.76
379.7
416.37
436.69
362.73
400.7
419.46
426.21
456.9
484.71
412.61
490.17
416.26
507.2
485.99
1947.34
525.48
446.07
455.56
482.95
495.47
479.67
460.98
461.98
454.37
469.25
538.04
497.83
524.16
466.11
498.47
499.48
475.86
534.23
440.77
439.84
430.75
496.65
490.93
452.48
414.49
483.75
417.27
463.74
368.47
410.05
436.57
359.05
349.12
344.09
326.75
390.52
333.1
353.01
289.38
340.26
341.27
299.75
230.97
212.97
292.09
246.46
217.62
213.4
168.95
162.75
173.52
162.86
155.47
78.54
117.48
47.04
29.04
90.28
15.99
40.57
30.24
-45.3
-60.74
-71.44
-93.67
-96.17
-59.5
-123.02
-83.52
-87.17
-140.95
-187.19
-129.66
-134.03
-196.01
-227.8
-249.95
-219.79
-278.6
-232.64
-245.28
-317.97
-272.64
-345.71
-293.67
-288.48
-375.9
-368.71
-377.78
-417.1
-343.28
-423.62
-376.5
-381.99
-441.19
-474.04
-486.29
-406.84
-409.33
-487.73
-474.92
-418.59
-518.57
-517.06
-528.9
-458.27
-474.22
-464.54
-475.68
-491.51
-468.89
-451.35
-490.36
-494.49
-543.01
-483.75
-496.51
-467.46
-482.05
-510.19
-497.69
-532.84
-457.65
-493.34
-433.62
-483.97
-432.43
-414.2
-486.1
-405.15
-417.03
-382.76
-452.95
-441.73
-371.99
-387.88
-360.62
-367.42
-375.35
-402.46
-348.92
-339.32
-305.51
-326.96
-269.19
-277.64
-294.88
-246.08
-205.15
-235.33
-181.06
-181.6
-217.35
-178.13
-192.1
-162.75
-154.52
-101.88
-84.93
-108.85
-125.02
-29.82
-81.2
-34.34
-14.34
1499.82
-29.13
66.3
56.82
86.38
96.27
137.83
110.55
127.88
84.11
113.05
193.28
176.96
154.34
196.71
188.22
222.84
249.51
304.38
233.39
236.9
259.77
309.64
289.9
348.23
324.74
308.42
320.43
357.34
417.08
386.07
353.33
372.68
463.85
461.33
476.25
488.05
411.91
433.69
482.77
435.59
488.19
520.15
517.65
460.09
536.83
532.71
491.28
543.5
460.86
524.73
547.58
452.21
496.94
516.69
463.08
531.41
474.57
529.79
487.92
470.71
459.66
489.45
452.09
515.8
418.19
441.18
412.95
401.65
389.82
405.28
435.89
430.93
429.72
383.72
402.39
422.29
347.47
310.05
301.96
309.91
353.5
359.57
318.52
313.05
300.85
250.3
287.7
220.71
256.21
219.74
192.8
162.93
175.35
100.98
172.37
134.08
57.71
136.24
107.94
50.93
12.96
-13.28
10.48
25.18
18.87
-53.69
-1.17
-97.95
-67.93
-82.9
-60.59
-87.83
-82.43
-180.93
-177.11
-140.73
-210.82
-217.05
-233.5
-227.03
-209.58
-301.38
-248.93
-323.42
-265.64
-269.55
-296.37
-294.81
-347.6
-337.72
-330.25
-361.04
-386.62
-376.15
-440.81
-433.15
-441.33
-388.06
-445.62
-425.07
-452.98
-411.87
-473.88
-495.13
-458.89
-436.48
-497.78
-527.44
-464.06
-466.47
-476.54
-461.47
-477.77
-528.83
-543.42
-524.52
-486.6
-478.26
-545.37
-485.83
-490.65
-470.35
-469.13
-467.07
-477.43
-438.97
989.58
-497
-457.83
-424.84
-405.06
-438.75
-419.16
-428.08
-448.6
-382.25
-374.88
-384.01
-357.38
-364.54
-379.39
-343.38
-330.52
-293.41
-353.44
-360.4
-273.3
-278.22
-247.86
-286.2
-275.18
-239.18
-175.38
-161.96
-194.41
-226.01
-158.6
-157.73
-164.53
-147.64
-68.75
-58.29
-85.8
-91.98
-22.87
12.81
28.03
-25.12
2.04
-20.61
32.77
53.4
68.38
125.53
104.71
114.04
79.34
146.95
121.09
171.71
145.45
206.74
174.27
182.05
287.69
204.06
313.66
284.69
291.47
337.36
304.04
293.04
307.45
332.19
330.16
334.92
390.58
348.48
372.45
366.24
387.69
448.25
422.16
399.27
489.43
425.51
481.22
495.71
456.13
500.15
517.4
444.45
536.98
491.6
540.56
536.33
472.71
468.56
545.46
511.4
531.82
539.63
491.88
468.3
453.45
532.81
509.61
507.14
494.28
524.09
475.94
509.85
480.04
419.56
484.1
398.92
482.76
454.03
448.58
454.2
450.68
411.47
352.87
420.56
411.53
364.58
346
379.25
314.09
343.16
266.2
291.25
274.26
257.74
228.65
242.95
209.34
242.89
240.72
169.82
193.63
178.64
122.22
113.01
131.3
90.38
72.8
22.21
94.06
4.68
33.62
30.93
1.01
-67.06
-35.5
-89.29
-105.75
-36.6
-111.41
-130.85
-124.01
-190.15
-165
-199.29
-164.38
-197.11
-228.85
-233.41
-198.27
-235.16
-246.72
-291.21
-251.88
1240.06
-278.15
-369.53
-325.21
-310.57
-317.28
-343.45
-361.21
-386.13
-413.02
-364.48
-457.34
-468.05
-444.09
-439.22
-413.99
-494.2
-419.62
-481.41
-476.22
-485.64
-496.5
-479.03
-442.81
-514.94
-526.53
-462.05
-466.77
-467.54
-488.07
-469.72
-478.62
-463.89
-519.39
-521.86
-533.66
-541.42
-465.45
-468.24
-470.04
-488.58
-483.89
-435.76
-503.15
-455.04
-472.49
-398.58
-450.23
-393.98
-441.01
-450.15
-369.08
-440.63
-406.97
-406.76
-324
-397.9
-375.85
-291.93
-344.41
-287.49
-256.01
-293.84
-263.78
-283.46
-296.54
-251.98
-212.5
-178.78
-217.16
-185.53
-160.07
-207.3
-108.09
-119.32
-108.46
-73.04
-130.47
-96.08
-75.36
-27.44
-40.76
-2.16
-23.85
8.92
-13.77
85.11
38.54
119.58
102.03
119.73
91.77
137.37
198.4
157.54
213.45
196.86
217.44
228.66
222.71
286.58
292.79
299.53
283.19
340.82
267.21
308.71
308.3
296.05
350.62
335.89
425.45
348.18
361.53
452.37
400.79
463.52
398.02
471.57
470.81
429.36
445.36
443.67
443.87
428.98
495.9
432.87
453.67
493.97
542.3
521.61
496.85
539
538.46
540.19
457.44
485.67
460.4
516.33
476.17
479.75
519.82
471.53
492.77
479.87
477.68
500.36
506.39
419.55
453.47
425.87
405.83
386.3
445.13
372.26
406.74
365.42
349.55
375.92
418.14
411.33
375.49
329.27
317.48
353.64
267.4
1841.36
233.77
247.19
220.6
269.15
274.74
232.04
229.72
202.36
146.69
122.72
188.79
117.49
138.9
107.18
101.3
70.71
44
19.47
15
24.68
12.54
-53.25
-78.93
-43.63
-94.83
-88.59
-85.98
-148.15
-115.69
-100.76
-142.35
-156.24
-145.07
-222.53
-157.83
-179.59
-228.54
-292.4
-213.43
-280.82
-284.59
-261
-319.71
-331.73
-361.36
-386.99
-347.42
-362.64
-349.14
-355.97
-435.4
-422.54
-440.38
-382.16
-462.59
-441.29
-425.89
-432.7
-438.65
-481.62
-442.1
-452.21
-449.98
-447.22
-522.65
-535.61
-457.97
-472.56
-515.35
-506.85
-479.83
-496.08
-500.34
-452.95
-526.8
-450.58
-463.43
-454.46
-530.69
-517.26
-500.68
-475.1
-509.33
-498.96
-488.27
-441.67
-459.48
-478.6
-482.19
-437.14
-425.14
-382.11
-384.36
-447.74
-350.59
-403.75
-362
-347.78
-369.77
-346.72
-377.77
-271.2
-351.53
-312.57
-306.33
-255.36
-261.95
-235.2
-189.21
-185.29
-238.58
-225.14
-198.78
-208.55
-180.13
-153.08
-119.06
-56.42
-123.02
-122.64
-34.56
-64.69
11.3
5.1
10.95
-3.88
-15.45
93.19
50.54
108.11
88.04
62.11
99.9
152.83
136.36
198.91
210.22
233.7
185.34
240.34
238.16
272.11
265.61
254.64
319.45
299.1
266.54
310.97
300.19
299.15
381.41
361.66
348.28
392.61
362.04
368.19
441.04
446.68
404.94
441.74
392.78
494.55
458.94
475.64
472.64
501.24
1950.51
485.38
447.36
537.87
445.88
520.16
466.53
495.35
466.86
546.11
451.62
486.63
520.15
501.79
475.12
511.73
507.58
513.86
446.77
509.27
508.81
470.49
473.11
499.82
439.77
480.15
477.33
393.48
419.62
400.16
449.21
375.59
417.01
420.82
363.34
335.98
390.6
297.94
355.34
328.78
262.3
282.48
322.73
306.61
304.49
290.34
257.99
233.92
233.38
229.61
201.46
140.01
107.74
100.7
106.25
139.72
133.93
91.69
112.64
17.71
42.9
61.6
46.44
-21.77
6.26
-47.28
-81.36
-86.83
-92.97
-62.25
-77.44
-130.59
-114.54
-186.87
-174.83
-192.43
-194.57
-266.18
-273.07
-199.62
-231.67
-220.25
-321.25
-341.87
-299.02
-362.39
-341.43
-389.76
-396.52
-377.84
-337.68
-423.45
-420.86
-449.23
-409.72
-441.28
-414.1
-470.91
-412.46
-485.54
-475.91
-457.76
-494.23
-514.43
-514.52
-474.96
-498.23
-457.59
-526.1
-492.58
-470.07
-533.49
-476.88
-507.59
-506.23
-453.49
-480.57
-515.92
-517.38
-483.69
-510.51
-490.61
-463.28
-460.54
-496.48
-496.81
-504.9
-468.96
-423.42
-480.52
-487.62
-461.39
-395.56
-376.52
-385.23
-413.8
-361.15
-386.72
-389.35
-323.65
-386.04
-336.94
-294.06
-274.77
-303.65
-318.31
-265.86
-241.61
-281.28
-243.4
-251.99
-203.25
-239.09
-212.89
-171.67
-178.86
-201.31
-124.06
-119.84
-76.47
-128.44
-84.17
-20.8
-31.26
-52.67
-56.3
-15.06
1492.41
16.33
83.95
84.48
36.17
114.44
99.59
97.91
81.24
104.74
198.9
190.22
151.03
221.35
188.58
245.1
283.96
228.34
230.54
307.68
305.49
269.25
316.74
291.87
303.06
394.35
352.71
394.65
356.44
355.88
400.51
413.68
458.72
378.19
449.3
401.7
410.6
443.03
453.82
515.26
467.06
477.93
498
502.87
449.6
508.83
520.18
460.84
507.04
544.87
489.97
524.26
474.82
527.8
534.79
496.59
531.47
457.93
482.91
500.24
530.51
434.38
506.13
456.1
426.23
480.39
442.78
493.28
479.22
392.15
448.42
387.46
366.96
432.42
406.91
342.95
355.81
358.99
394.32
291.44
361.74
346.08
260.61
333.77
232.01
314.01
233.47
238.32
223.68
184.26
189.11
206.6
145.38
171.53
129.25
176.27
130.57
94.12
125.71
90.59
35.48
20.14
61.47
25.74
-22.42
-49.15
-82.48
-82.08
-102.8
-130.07
-131.99
-109.93
-111.53
-119.83
-124.93
-139.4
-198.64
-176.8
-257.18
-193.69
-221.67
-294.09
-218.68
-240.2
-307.38
-259.36
-336.32
-295.99
-303.11
-367.1
-371.8
-361.43
-397.49
-402.27
-361.73
-398.74
-397.09
-417.83
-395.53
-459.57
-411.95
-487.76
-428.28
-455.32
-440.33
-460.81
-438.85
-505.85
-486.73
-514.38
-521.34
-452.69
-470.1
-548.41
-517.46
-499.5
-458.62
-534.02
-546.76
-509.45
-526.74
-495.62
-493.41
-474.01
-520.14
-466.37
993.67
-473.36
-477.64
-450.21
-444.82
-475.44
-484.8
-407.2
-404.87
-406.77
-420.89
-388.07
-352.23
-368.73
-379.89
-322.04
-394.66
-295.99
-341.63
-283.66
-338.95
-340.1
-269.52
-225.2
-281.08
-268.31
-208.47
-205.87
-189.63
-180.3
-136.22
-167.86
-103.83
-156.3
-76.91
-134.64
-104.68
-73.02
-41.85
-74.45
-0.85
1.84
-23.44
46.53
32.35
59.78
47.53
125.28
71.38
71.46
84.49
136.6
187.18
175.8
180.16
197.17
252.95
253.64
258.37
251.89
222.09
297.6
292.18
294.78
325.38
351.81
309.52
363.76
390.8
382.67
404.99
351.83
353.92
388.42
411.14
410.6
413.53
437.02
470.9
490.91
455.79
505.55
472.51
474.4
462.23
433.62
457.37
445.96
457.61
455.04
508.34
469.96
496.1
512.39
515.19
490.99
477.06
504.83
513.85
489.42
462.37
485.81
438.83
479.76
484.75
424.26
496.91
459.5
476.87
461.27
400.5
460.99
475.15
463.17
440.95
375.4
392.99
382.58
394.76
319.58
381.42
327.76
353.84
345.99
317.73
278.09
248.99
283.56
251.38
246.24
230.2
260.78
179.14
183.42
147.35
150.16
126.69
116.54
138.56
87.38
60.07
81.16
21.07
53.29
57.24
-1.09
-13.07
6.75
14.02
-75.89
-24.29
-78.14
-84.3
-130.38
-102
-139.26
-164.94
-172.73
-141.4
-169.14
-163.61
-211.44
-240.25
-243.85
-287.36
-307.36
-313.77
1173.3
-283.79
-369.01
-313.09
-321
-354.38
-414.22
-358.81
-355.69
-383.1
-420.76
-447.84
-470.53
-421.92
-482.33
-422.45
-494.81
-505.42
-506.62
-457.01
-515.58
-523.72
-446.03
-534.9
-481.5
-484.72
-527.14
-480.74
-502.21
-499.53
-472.78
-492.56
-464.49
-461.63
-463.07
-493.06
-538.02
-539.43
-497.28
-471.65
-457.68
-525.84
-464.04
-442.07
-438.21
-426.66
-483.19
-465.49
-468.81
-409.74
-386.32
-382.49
-422.76
-369.05
-347.1
-382.13
-349.72
-384.1
-320.24
-353.65
-337
-264.8
-323.35
-267.8
-267.89
-272.04
-220.17
-250.57
-224.25
-173.84
-238.65
-146.22
-139.74
-190.43
-88.3
-136.93
-131.41
-96.73
-39.58
-87.51
-66.29
-57.08
-26.98
12.64
50.11
31.77
93.68
71.77
116.66
57.69
134.65
104.43
125.91
162.91
189.59
155
179.48
201.35
263.86
256.02
256.79
238.04
256
248
295.85
280.41
322.77
340.4
353.74
361.87
376.98
375.79
350.72
391.37
375.17
378.82
435.07
404.11
454.42
462.41
418.23
411.17
503.36
507.92
438.52
460.49
457.86
496.32
465.99
457.66
472.79
533.12
510.33
453.24
482.79
500.42
496.14
450.9
467.82
486.1
520.94
496.79
479.19
528.59
479.34
519.68
453.75
451.75
511.17
484.67
434.22
460.23
484.02
421.28
442.49
444.26
436.45
360.12
419.19
390.39
361.76
344.06
367.22
302.23
313.55
323.91
290.81
1818.48
311.76
290.21
296.08
242.19
244.56
210.22
144.18
156.99
126.34
102.01
169.66
148.95
127.85
97.67
84.12
40.66
74.21
21.85
-28
-12.95
-2.51
16.42
-70.18
-36.15
-76.48
-93.73
-139.58
-159.66
-172.88
-167.31
-154.44
-132.63
-202.96
-213.01
-184.18
-187.35
-277.16
-252.37
-315.24
-309.56
-300.17
-291.36
-296.77
-305.19
-325.43
-322.75
-333.7
-400.11
-400.77
-410.82
-444.01
-410.13
-447.73
-388.56
-428.55
-464.47
-458.78
-447
-491.68
-444.71
-497.49
-444.4
-465.21
-530.27
-446.55
-530.57
-462.23
-446.98
-511.98
-463.59
-531.01
-530
-530.29
-483.9
-504.3
-542.24
-478.66
-524.79
-455.88
-534.06
-503.79
-434.04
-511.25
-442.23
-501.61
-468.26
-485.31
-468.94
-388.94
-435.14
-459.13
-367.88
-447.13
-357.74
-418.32
-364.17
-334.21
-394.82
-358.98
-371.88
-278.71
-328.48
-288.47
-321
-238.9
-215.95
-256.98
-232.12
-191.78
-198.93
-226.71
-217.95
-118.45
-176.49
-111.84
-125.43
-67.77
-84.58
-87.27
-71.25
-76.05
6.44
-4.06
6.42
22.79
38.42
80.08
18.46
79.95
129.63
58.09
122.64
148.5
148.55
156.43
178.6
231.29
158.14
166.39
198.53
253.36
222.95
247.16
261.27
303.27
328.16
322.61
343.13
336.26
369.94
324.38
379.11
385.36
410.92
392.03
439.46
435.81
397.84
456.14
406.92
489.83
457.9
475.74
419.38
486.69
1941.47
435.36
487.25
452.35
484.59
458.57
455.25
530.54
494.8
513.2
474.24
477.85
453.37
496.56
459.47
531.96
471.8
511.06
473.89
442.18
473.93
499.6
426.43
450.37
462.59
433.7
469.55
479.07
478.36
417.22
442.5
376.56
377.91
352.89
388.47
389.65
308.59
351.43
339.88
318.79
338.13
338.37
255.38
306.41
236.87
240.27
264.19
246.35
218.95
151.78
220.6
142.46
111.55
105.59
139.58
118.86
59.76
37.37
65.92
23.65
17.21
67.21
42.35
-16.25
-43.25
-81.1
-96.81
-18.28
-86.51
-115.14
-159.27
-78.7
-121.93
-193.38
-157.59
-222.22
-216.66
-211.66
-250.91
-280.25
-258.54
-219.36
-279.13
-334.65
-299.18
-273.57
-320.97
-332.83
-303.45
-348.92
-410.1
-398.68
-416.01
-373.25
-419.6
-432.36
-407.63
-403.71
-440.4
-397.25
-494.65
-447.12
-463.63
-422.35
-523.82
-527.4
-455.73
-494.91
-483.54
-461.65
-540.8
-531.17
-505.9
-504.45
-460.11
-502.64
-472.36
-543.33
-459.23
-515.23
-461.99
-490.13
-487.07
-509.35
-469.25
-501.44
-511.85
-506.61
-502.7
-442.75
-462.02
-485.91
-431.46
-412.13
-429.31
-359.85
-383.35
-342.07
-418.06
-355.05
-347.73
-342.41
-288.86
-335.53
-279.37
-290.3
-285.45
-304.38
-232.8
-287.5
-271.78
-201.14
-214.07
-169.07
-148.63
-163.44
-112.52
-158.99
-142.99
-105.81
-71.93
-121.87
-98.69
-41.03
-81.33
6.73
-7.27
1520.44
28.46
21.23
17.41
61.96
112.45
59.1
107.22
149.65
185.03
134.7
194.62
136.47
182.49
185.98
184.25
244.83
238.72
273.26
252.3
268.05
290.15
315.01
282.84
349.49
342.27
321.53
401.03
363.66
421.12
357.17
398.24
422.96
456.95
399.17
405.68
460.1
459.72
478.87
418.76
508.11
471.44
499.7
460.65
468.83
443.8
488.6
479.07
469.05
452.49
535.82
548.41
509.77
488.75
540.39
475.68
522.62
469.19
466.44
534.18
476.94
477.24
467.22
424.13
474.13
471.1
437.14
455.41
467.58
422.59
454.83
409.82
445.82
378.77
378.74
343.57
407.83
369.74
375.71
386.08
300.77
357.32
281.41
261.94
247.76
244.84
278.44
223.93
195.83
196.31
154.77
190.38
213.68
164.09
110.62
144.61
131.35
96.32
41.01
48.43
104.39
90.89
45.53
-30.16
-31.72
-4.84
-74.04
-71.04
-20.53
-114.17
-122.82
-108.79
-146.66
-97.16
-190.74
-158.52
-164.08
-207.18
-209.91
-205.96
-269.04
-200.08
-251.9
-302.22
-293.17
-268.86
-271.09
-317.87
-328.72
-374.23
-326.37
-366.38
-383.22
-406.1
-430.76
-440.43
-439.51
-433.08
-396.61
-456.65
-393.91
-430.99
-483.11
-443.59
-501.85
-449.74
-442.47
-500.31
-501.24
-445.02
-502.47
-501.18
-463.15
-537.08
-534.34
-460.72
-522.92
-518.01
-505.84
-540.43
-531.39
-541.66
-459.84
-438.73
-455.08
-512.29
-483.15
1036.95
-465.99
-427.77
-490.68
-497.25
-435
-457
-416.88
-381.19
-374.73
-383
-391.72
-352.1
-332.62
-343.49
-369.38
-338.02
-362.91
-297.47
-319.49
-313.48
-265.89
-270.15
-214.7
-279.29
-230.69
-264.67
-198.01
-150.65
-208.86
-185.35
-129.11
-84.13
-125.07
-70.42
-68.85
-50.72
-54.73
-11.38
-78.8
26.74
13.54
-34.92
6.61
56.68
40.83
73.64
79.38
100.89
129.43
179.41
108.13
114.82
164.84
217.73
160.66
230.34
234.6
290.54
294.61
273.64
283.2
322.11
339.41
312.25
348.47
302.6
369.02
330.78
334.44
387.1
436.16
393.71
388.7
411.72
428.11
402.49
392.63
413.08
486.58
420.86
458.61
499.81
515.04
505.17
457.45
441.47
457.92
526.19
461.89
473.52
476.18
532.9
471.8
481.37
514.41
539.28
535.32
445.44
511.29
515.28
492.47
481.63
440.72
509.68
443.5
495.27
492.8
489.69
469.32
415.68
448.36
410.11
449.03
379.86
397.2
353.18
389.58
337.97
343.22
377.95
370.26
300.86
303.59
277.24
256.52
307.25
211.94
279.23
235.05
195.96
221.81
213.64
166.24
189.85
154.3
157.88
77.72
153.84
112.9
91.16
81.22
67.36
76.1
-14.93
-43.15
-55.75
-69.84
-61.36
-18.47
-55.28
-85.68
-89.16
-87.38
-142.53
-123.57
-136.55
-172.19
-176.21
-227.38
-170.74
-220.07
-197.81
-292.59
-241.32
-257.42
1227.24
-337.54
-330.77
-323.61
-355.3
-399.36
-348.5
-360.62
-401.94
-440.38
-382.96
-433.38
-432.48
-430.97
-466.01
-407.6
-429.29
-460.62
-494.25
-499.63
-468.07
-450.31
-451.74
-501.68
-454.93
-457.07
-482.25
-458.58
-545.62
-485.97
-487.75
-527.05
-517.96
-450.29
-471.62
-509.2
-527.1
-455.9
-451.38
-469.38
-495.16
-471.67
-453.36
-502.08
-457.17
-493.8
-492.32
-418.82
-393.36
-400.87
-437.3
-379
-387.34
-439.29
-343.19
-419.27
-342.01
-382.83
-327.42
-375.13
-306.8
-357.66
-325.95
-306.04
-244.14
-237.55
-297.38
-248.85
-267.88
-240.46
-169.53
-137.9
-163.65
-179.36
-179.9
-116.32
-85.97
-123.96
-57.88
-74.19
-80.48
-73.59
8.6
33.29
31.46
43.23
88.95
83.76
32.1
45.38
81.31
153.02
136.38
172.08
154.12
125.29
151.56
197.22
231.61
250.9
193.4
266.53
218.04
328.38
334.73
310.34
300.54
331.31
338.39
389.01
324.8
377.73
378.75
437.13
425.91
421.59
462.71
458.55
461.25
459.05
443.9
495.01
493.22
465.97
423.86
454.92
500.58
445.28
504.55
459.1
504.08
506.52
481.11
508.06
527.81
502.7
506.21
493.95
531.46
534.57
514.23
465.57
486.18
443.73
438.07
493.74
477.23
483.65
511.18
493.18
422.69
453.19
419.96
467.01
438.37
447
450.29
353.28
411.34
373.43
375.83
326.58
361.09
386.16
316.95
286.93
325.87
1837.39
257.37
248.01
220.28
243.21
179.36
251.43
183.2
205.56
206.85
189.99
157.63
124.93
67.15
112.56
57.99
21.48
92.68
28.03
46.64
43.11
10.29
24.76
-34.18
-35.74
-18.92
-132.36
-127.67
-128.71
-109.47
-128.9
-173.44
-205.81
-212.79
-220.99
-216.52
-229.18
-261.82
-227.23
-247.06
-258.16
-297.98
-259.55
-333.26
-353.61
-378.93
-336.5
-352.77
-388.15
-360.39
-386.22
-430.66
-456.62
-394.99
-450.65
-411.06
-433.45
-469.15
-406.94
-429.64
-476.88
-441.31
-488.26
-451.8
-516.96
-517.04
-482.17
-459.38
-489.67
-454.62
-540.36
-456.98
-474.83
-501.58
-485.75
-492.35
-515.75
-491.68
-516.18
-443.48
-535.94
-498.86
-521.67
-520.65
-430.54
-453.27
-466.73
-442.08
-437.44
-414.27
-463.34
-463.64
-393.72
-433.04
-379.74
-373.26
-369.1
-343.49
-322.94
-397.98
-359.58
-333.1
-316.18
-280.91
-312.86
-327.45
-307.85
-208.34
-282.98
-194.64
-213.32
-165.06
-216.35
-219.82
-154.75
-126.86
-122.33
-83.86
-72.82
-60.87
-107.1
-79.19
-69.35
-11.49
-20.8
-33.09
69.98
23.42
34.16
69.07
107.34
74.09
87.82
106.47
118.47
143.8
136.33
132.9
226.64
160.44
249.61
274.76
299.03
289.52
240.19
310.79
260.85
356.42
281.72
365.75
370.8
328.89
380.17
364.71
427.14
389.36
363.39
451.96
422.47
391.81
393.11
445.72
424.96
487.44
420.84
429.9
438.3
1931.46
532.29
449.72
473.02
497.3
480.19
500.84
494.93
517.33
471.09
450.17
450.68
505.75
456.24
505.85
464.23
501.67
516.87
516.42
526.15
489.5
432.45
468.79
419.66
413.61
495.06
480.23
448.48
428.31
461.73
418.01
437.5
438.07
351.44
332.05
386.28
355.28
363.34
282.09
318.1
284.51
277.63
301.97
275.82
211.78
291.08
217.79
202.27
207.01
210.16
185.11
114.49
167.7
133.42
83.93
137.97
50.4
119.16
50.6
-3.57
17.68
42.21
26.17
0.63
-45.31
-43.99
-77.67
-121.05
-135.65
-128
-139.82
-91.22
-141.11
-159.77
-187.36
-172.21
-230.31
-201.83
-277.9
-245
-219.41
-289.43
-322.5
-292.08
-261.99
-367.5
-345.38
-366.94
-337.1
-381.32
-423.38
-400.86
-443.08
-416.48
-388.42
-382.42
-478.35
-418.23
-484.78
-452.54
-454.14
-459.96
-516.19
-486.08
-482.73
-521.3
-508.81
-510.22
-513.07
-486.27
-516.86
-501.16
-454.27
-501.22
-508.51
-536.98
-476.29
-547.23
-543.52
-491.08
-539.68
-526.03
-488.31
-459.91
-428.93
-465.38
-447.6
-422.38
-470.44
-484.4
-480.52
-450.76
-475.67
-423.77
-393.57
-352.9
-357.77
-352.12
-335.52
-315.62
-318.01
-301.55
-335.46
-362.69
-333.71
-246.54
-292.77
-228.71
-249.77
-285.71
-225.17
-228.94
-226.68
-175.88
-187.77
-150.23
-184.78
-153.74
-166.31
-83.81
-45.18
-121.16
-29.68
-1.73
15.11
11.77
-33.13
41.43
62.46
8.39
27.28
87.8
45.11
149.29
102.07
121.68
145.11
147.92
225.83
153.13
234.72
206.08
229.76
282.61
249.79
259.26
325.5
342.28
279.39
324.67
374.96
380.91
366.18
350.36
359.6
359.07
439.05
448.16
378.56
386.82
405.8
407.66
400.78
474.07
482.33
467.77
471.17
484.49
470.06
531.26
504.78
517.19
532.76
542.39
454.33
463.48
483.96
499.81
498.26
498.21
522.39
495.67
467.94
457.66
456.6
529.99
520.61
486.19
444.54
518.65
426.43
511.11
434.31
475.14
447.3
472.59
413.45
376.2
420.4
371.9
378.64
425.38
340.72
371.15
386.18
368.53
382.88
288.01
326.84
320.72
296.67
273.12
263.15
264.52
236.22
203.04
189.93
196.91
188.8
213.96
120.81
103.35
143.15
147.48
73.6
117.14
85.97
0
66.81
-18.41
21.01
-36.71
5.97
-1.99
-9.99
-84.08
-135.28
-117.78
-130.7
-106.54
-133.17
-166.37
-218.16
-166.96
-169.86
-256.25
-253.49
-254.89
-248.11
-251.21
-240.31
-325.83
-269.68
-307.05
-328.11
-314.12
-303.1
-378.59
-384.85
-409.4
-374.16
-351
-408.4
-448.86
-418.5
-434.11
-476.81
-417.14
-406.7
-506.72
-501.15
-424.09
-452.57
-450.74
-470.47
-439.1
-492.44
-444.02
-544.35
-546.86
-543.08
-510.81
-548
-476.49
-455.23
-541.35
-540.69
-456.76
-456.43
-516.12
-495.27
-471.21
-498.34
1021.38
-497.12
-441.04
-504.55
-500.7
-420.14
-403.43
-406.15
-439.62
-393.47
-453.29
-425.2
-401.87
-400.06
-359.13
-399.76
-389.35
-332.37
-282.56
-279.5
-329.85
-319.97
-256.74
-265.21
-241.22
-232.94
-189.53
-178.97
-231.96
-216.02
-166.1
-111.64
-103.87
-98.94
-150.71
-116.92
-101.21
-28.51
-16.4
-35.05
-62.92
-37.69
-39.45
0.56
1.49
9.32
116.74
44.24
123.25
154.73
176.39
143.27
162.7
175.13
233.56
225.43
174.88
257.22
251.24
227.46
314.67
291.35
320.62
352.36
320.62
315.01
316.91
300.05
399.96
385.51
353.79
403.64
362.14
362.47
428.44
450.44
435.18
441.3
462.36
465.74
443.25
448.56
464.37
458.52
514.53
456.79
479.65
528.21
500.37
523.3
531.55
505.21
537.26
492.5
534.18
474.91
504.39
533.75
526.58
499.82
534.21
512.82
524.29
491.3
424.86
474.23
455.99
504.11
413.93
463.39
434.44
476.33
375.56
382.4
378.79
363.93
430.29
392.91
349.94
343.3
356.21
371.43
302
267.09
322.31
252.96
293.53
221.72
287.76
264.04
249.79
191.67
227.23
156.69
156.98
168.56
106.64
122.26
139.07
107.37
49.4
64.94
56.32
35.52
-9.22
-13.28
24.65
-5.62
-25.48
-70.42
-72.86
-64.37
-64.58
-124.97
-172.88
-143.3
-177.42
-185.56
-168.38
-184.32
-232.84
-258.77
-267.18
-300.52
-242.73
-293.09
-339.26
1186.39
-277.83
-349.95
-314.51
-381.94
-355.73
-401.52
-383.76
-352.38
-351.57
-416.04
-450.13
-436.66
-476.58
-480.27
-416.26
-404.21
-470.14
-466.54
-445.31
-484.33
-468.35
-491.14
-489
-480.95
-492.39
-507.41
-459.39
-477.38
-450.77
-501.96
-545.66
-513.24
-494.75
-458.63
-448.04
-480.15
-468.43
-526.87
-453.5
-491.46
-510.13
-516.08
-513.96
-422.41
-460.68
-426.46
-435.65
-458.21
-424.27
-398.17
-432.52
-421.85
-374.4
-430.23
-371.67
-377.76
-349.33
-343.65
-359.98
-327.21
-320.38
-320.61
-251.55
-266.5
-281.28
-252.9
-219.96
-207.84
-184.49
-199.05
-166.29
-189.46
-167.43
-127.99
-83.91
-136.38
-99.36
-103.39
-61.39
0.17
-61.56
35.93
19.2
32.59
71.74
94.5
72.93
75.54
64.61
144.47
118.65
155.96
202.32
189.69
206.77
220.02
199.74
267.22
250.05
205.28
288
291.88
331.54
324.81
343.16
303.37
343.37
381.22
350.83
403.8
391.77
427.58
414.57
373.39
375.04
438.19
425.6
484.55
416.62
471.15
499.62
499.36
430.08
475.85
458.09
458.74
510.69
526.23
536
534.16
507.12
470.94
491.4
473.15
493.99
476.29
459.7
533.93
484.9
474.56
522.49
507.15
467.97
471.01
471.64
499.67
492.41
450.95
461.73
430.11
468.87
462.66
417.14
378.97
405.27
432.09
370.83
333.87
365.44
340.94
336.23
376.45
356.55
336.13
351.41
329.15
246.05
272.46
243.19
264.54
225.39
259.97
225.51
210.75
165.26
171.91
131.81
169.77
140.32
54
55.54
83.3
72.31
74.19
29.2
-16.69
36.31
-24.45
15.08
-16.95
-16.27
-37.84
-114.75
-155.52
-160.73
-126.63
-192.76
-156.72
-213.44
-207.19
-191.06
-240.03
-256.99
-276.97
-210.96
-228.85
-287.35
-283.12
-287.42
-323.96
-376.47
-361.45
-313.61
-328.09
-339.47
-405.96
-418.64
-418.83
-447.97
-444.28
-427.47
-419.22
-459.79
-416.9
-410.07
-476.46
-515.82
-437.62
-431.55
-473.25
-483.44
-462.46
-468.51
-509.81
-449.69
-510.49
-450.77
-544.55
-488.95
-484.17
-524.25
-529.5
-509.53
-457.41
-530.45
-499.66
-465.18
-528.97
-448.6
-458.92
-488.51
-500.24
-424.65
-457.45
-430.77
-453.5
-455.16
-440.37
-405
-383.5
-430.42
-337.6
-376.4
-323.32
-324.34
-363.46
-354.15
-323.75
-295.59
-310.58
-256.17
-281.2
-245.27
-248.98
-207.64
-182.29
-201.01
-206.18
-132.77
-152.24
-114.88
-91.91
-117.01
-60.57
-133.09
-124.79
-87.36
-11.21
-53.74
-61.91
-0.25
62.74
-13.45
81.44
80.85
73.42
129.06
109.32
133.47
107.98
111.78
150.38
193.37
160.38
232.97
236.24
226.89
238.91
223.89
315.26
279.47
258.95
281.66
325.02
311.85
355.12
369.08
326.81
330.59
334.71
419.66
415.19
388.58
412.55
472.54
445.12
401.93
426.07
496.72
502.55
487.75
491.36
1984.49
475.59
519.37
532.87
485.2
497.12
482.41
530.07
520.24
523.46
469.19
498.39
469.31
489.09
462
503.74
519.17
507.2
503.78
459.82
455.35
484.27
440.56
469.32
425.08
484.46
440.44
468.25
438.04
468.29
409.51
412.77
397.9
344.28
354.89
350.42
392.43
332.18
345.13
305.65
275.8
266.39
277.39
309.87
310.07
272.41
215.97
176.74
181.96
221
224.06
214.99
150.18
137.78
124.46
116
52.58
77.61
37.21
16.92
79.76
55.27
-37.26
-56.95
-25.03
-27.58
-41.1
-120.35
-131.23
-89.94
-101.72
-116.45
-169.59
-174.16
-159.83
-170.99
-170.69
-233.67
-273.82
-210.62
-259.93
-313.97
-255.5
-300.1
-299.57
-278.43
-306.67
-369.06
-373.67
-394.59
-331.49
-373.99
-384.73
-410.77
-361.07
-442.57
-402.69
-481.68
-423.82
-489.47
-472.02
-479.81
-497.07
-435.92
-462.24
-467.66
-469.15
-523.15
-482.39
-486.15
-507.87
-485.59
-458.88
-502.52
-483.42
-494.56
-500.37
-468.91
-454.91
-453.97
-526.42
-492.51
-517.77
-515.3
-493.3
-442.39
-479.05
-488.82
-489.82
-490.53
-396.71
-446.08
-470.99
-388.23
-381.56
-371.28
-430.99
-375.08
-391.76
-394.1
-346.66
-381.98
-287.89
-343.98
-289.34
-271.9
-320.24
-298.86
-221.45
-257.36
-198.34
-180.29
-187.61
-226.87
-148.61
-198.53
-126.16
-108.82
-86.39
-91.86
-100.56
-107.05
-48.8
-61.48
-17.91
-26.82
7.96
1473.17
1.75
17.81
64.98
37.09
134.15
136.05
69.88
150.44
114.22
143.45
157.43
197.04
211.2
171.82
274.66
195.84
209.67
296.08
239.98
268.09
287.68
364.27
312.85
302.45
380.28
339.69
384.9
368.06
373.93
439.85
365.78
440.28
395.18
406.32
472.78
483.43
487.87
460.91
425.52
475.03
495.37
519.28
438.18
511.14
464.91
476.82
492.23
465.82
519.27
537.86
538.21
450.52
539.46
456.26
502.59
502.4
519.68
476.3
517.36
483.64
496.22
513.24
506.23
438.53
417.36
408.45
463.92
472.29
457.4
421.17
390.97
455.09
431.62
431.88
351.03
413.59
379.54
327.55
370.77
303.35
343.46
313.06
296.79
270.32
269.78
255.81
279.2
177.77
200.87
177.69
137.21
211.47
149.66
172.64
108.65
93.98
59.72
61.63
40.51
72.36
64.68
41.36
2.43
28.06
5.1
-69.43
-8.28
-45.76
-42.18
-138.48
-131.05
-94.26
-135.93
-199.88
-152.74
-206.97
-148.14
-223.04
-199.9
-220.69
-247.21
-247.29
-304.89
-305.01
-321.56
-285.53
-294.73
-356.46
-373.46
-336.65
-351.27
-373.14
-340.78
-374.84
-423.32
-366.5
-456.38
-445.53
-472.42
-462.45
-464.57
-506.86
-452.37
-446.1
-462.02
-480.3
-487.86
-468.38
-500.86
-461.92
-530.19
-496.27
-537.33
-548.95
-489.44
-454.34
-496.81
-521.5
-463.4
-464.67
-517.85
-539.57
-495.59
-527.51
-458.27
-476.41
-496.2
-456.03
-415.51
-479.64
-413.94
-438.62
-397.73
-443.51
-415.18
-364.96
-418.84
-403.61
-385.02
-354.48
-357.41
-332.67
-346.08
-375.82
-313.62
-350
-302.96
-286.38
-230.33
-216.28
-236.07
-193.21
-261.61
-224.26
-140.2
-218.32
-155.33
-182.71
-168.82
-125.32
-63.64
-47.51
-34.7
-64.34
-35.83
-46.3
-8.83
-27.82
-27.02
2.07
73.7
45.57
108.78
72.12
78.59
143.19
171.75
164.82
190.98
224.44
236.3
164.04
269.88
208.63
257.8
258.55
291.63
311.34
306.31
309.44
328.61
363.3
378.09
364.78
344.79
412.77
351.02
379.15
435.54
379.6
442.64
463.04
434.72
411.31
463.43
463.85
436.76
492.42
480.18
473.48
518.59
483.11
466.07
481.45
535.48
474.89
464.3
451.23
486.4
487.06
543.56
450.5
519.7
511.42
445.54
458.39
490.18
485.19
492.92
523.05
422.39
432.71
438.84
430.98
426.48
469.8
476.1
398.34
414.09
434.05
393.73
368.42
378.46
360.26
357.33
355.24
363.55
333.96
317.43
272.68
244.69
233.65
228
272.06
253.22
205.3
250.75
204.75
174.22
215.4
204.4
98.65
88.49
112.75
103.46
95.56
83.98
90.17
85.62
-0.67
14.64
-27.81
13.22
-28.96
-80.2
-86.1
-48.64
-133.47
-69.19
-130.12
-104.07
-105.64
-142.15
-210.71
-213.18
-247.61
-187.52
-185.46
-272.18
-238.56
-224.18
-320.51
1224.08
-305.49
-347.71
-378.32
-330.84
-373.48
-346.38
-385.34
-344.23
-418.23
-431.4
-461.99
-458.25
-446.03
-440.48
-427.53
-445.89
-497.04
-447.44
-510.79
-425.66
-461.23
-513.65
-531.67
-510.98
-462.72
-524.62
-495.18
-449.33
-467.34
-465.1
-549.97
-470.65
-499.46
-478.17
-526.85
-526.88
-496.12
-449.33
-451.88
-436.83
-446.97
-429.13
-470.05
-421.49
-467.34
-478.01
-448.08
-415.76
-416.54
-371.09
-378.43
-391.4
-367.61
-355.67
-415.64
-364.91
-338.32
-391.3
-331.24
-292.31
-271.42
-329.57
-282.92
-314.69
-251.65
-218.39
-273.56
-262.73
-245.92
-169.69
-190.84
-122.07
-131.4
-150.69
-94.31
-146.45
-129.76
-101.58
-36.57
-62.32
-15.38
-19.67
41.49
-15.71
33.7
3.28
38.25
105.77
40.16
80.35
83.98
95.14
126.38
136.8
158.83
201.18
186.47
265.01
205.36
249.31
240.23
268.34
263.16
248.83
294.55
332.52
367.38
298.88
368.07
318.8
402.63
379.29
380.11
401.47
429.96
390.81
468.94
484.48
461.69
443.76
490.8
480.55
428.44
442.47
454.15
436.76
495.51
520.55
538.66
540.44
521.98
545.03
484.9
532.78
456.48
543.56
504.73
511.42
500.94
541.84
499.76
482.96
474.1
528.03
481.95
470.24
490.65
494.98
470.39
455.07
399.02
448.96
474.04
450.81
391.57
391.88
402.13
374.21
362.86
354.41
318.34
329.65
348.57
279.97
270.91
329.04
1829.2
255.98
270.41
252.08
187.8
192.35
164.66
161.07
182.87
160.57
172.73
151.6
127.5
96.67
130.36
123.74
41.25
12.47
7.24
0.33
21.18
-51.12
-63.81
-12.6
-98.22
-70.26
-136.16
-53.57
-92.31
-167
-166.95
-174.82
-194.55
-234.85
-202.32
-196
-260.96
-253.42
-278.64
-225.85
-292.49
-312.92
-298.62
-353.84
-355.25
-367.95
-395.57
-381.62
-376.39
-344.39
-378.55
-395.98
-409.92
-375.09
-435.44
-453.86
-477.35
-479.41
-451.66
-419.56
-421.28
-448.28
-515.57
-432.36
-488.42
-473.97
-520.54
-446.98
-482.32
-525.25
-500.43
-512.42
-501.49
-537.96
-537.05
-533.4
-509.14
-488.54
-470.43
-463.25
-471.27
-504
-499.88
-510.33
-518.83
-438.89
-443.47
-456.57
-436.27
-465.27
-450.52
-416.39
-428.18
-454.69
-435.73
-362.37
-366.36
-411.56
-329.29
-376.99
-321.08
-362.67
-313.83
-326.24
-321.01
-246.37
-286.45
-210.88
-233.01
-247.88
-214.21
-173.27
-190.86
-149.17
-195.1
-95.47
-92.18
-139.95
-138.23
-42.55
-92.06
-39.61
8.42
8.3
-31.16
-38.33
45.14
55.23
18.22
69.28
85.5
143.31
66.16
131.99
141.35
142.89
139.95
174.04
210.09
209.56
259.32
263.03
240.18
268.09
291.72
254.64
328.93
270.01
377.32
370.17
337.33
396.26
362.04
401.02
351.45
408.25
419.39
436.86
413.17
445.17
392.21
459.49
475.39
449.83
470.46
442.74
521.03
501.97
491.09
513.83
504.89
486.65
490.35
473.86
476.12
484.93
459.54
459.56
514.36
484.33
539.96
465.04
463.63
516.46
535.46
523.26
465.73
498.53
469.76
432.23
425.73
430.75
403.2
434.35
428.75
400.12
433.85
417.7
385.28
341.02
422.96
404.21
345.17
380.66
350.71
337.25
339.76
319.61
272.95
242.53
259.62
222.3
271.3
210.26
182.29
232.68
199.42
159.71
174.72
182.54
138.44
140.33
96.41
49.93
98.51
52.24
46.54
-23.29
-10.43
-8.14
-18.64
-50.24
-88.57
-40.75
-120.16
-130.19
-136.17
-162.53
-167.26
-194.34
-149.44
-193.8
-180.64
-178.06
-207.92
-285.1
-219.73
-274.69
-299.87
-319.85
-314.46
-265.53
-333.48
-300.38
-335.92
-394.56
-393.39
-378.03
-430.29
-418.49
-414.68
-432.24
-449.44
-466.25
-392.73
-419.26
-452.46
-442.66
-475.2
-484.33
-505.26
-528.31
-509.69
-477.68
-486.31
-449.14
-459.15
-485.54
-540.13
-528.79
-503.34
-470.78
-496.06
-547.56
-486.44
-464.56
-478.33
-512.62
-517.41
-456.24
-466.49
-524.71
-455.24
-481.3
-490.97
-455.93
-416.33
-398.56
-392.97
-438.86
-403.39
-403.31
-402.73
-400.68
-389.12
-371.55
-343.82
-330.19
-295.78
-315.01
-314.57
-333.96
-275.76
-314.29
-281.69
-303.12
-212.24
-260.18
-260.56
-222.97
-202.36
-164.37
-168.34
-188.21
-160.75
-161.36
-102.83
-103.92
-116.81
-55.26
-51.68
-27.3
39.63
1554.95
59.96
16.3
24.65
100.27
99.72
51.05
135.46
104.7
138.4
155.46
138.09
135.12
198.86
239.68
241.62
281.45
257.48
305.95
258.37
274.39
317.16
293.2
330
373.28
376.77
406.44
374.31
366.25
383.55
440.78
376.55
451.26
404.84
401.22
421.45
467.4
419.56
480.13
413.73
449.93
482.82
472
451.97
527.91
491.35
447.57
490.08
542.88
464.06
513.18
533.39
452.3
483.44
494.34
461.72
477.61
463.49
494.13
520.66
531.92
492.85
520.64
450.45
449.52
430.3
471.41
413.86
402.2
464.09
393.78
467.54
428.44
435.59
375.77
403.74
389.97
410.09
353.29
366.31
335.73
325.6
355.08
323.47
262.06
290.79
252.16
228.48
227.55
214.19
207.88
216.47
170.06
165.42
128.73
135.01
156.32
95.71
50.03
111.64
67.18
33.56
31.97
13.08
-49.89
-64.24
-57.96
-48.81
-52.89
-47.98
-139.68
-64.07
-102.76
-177.89
-125.05
-175.3
-203.44
-168.68
-248.42
-183.76
-198.37
-269.98
-298.09
-242.8
-327.76
-291.94
-343.33
-274.69
-355.74
-374.18
-344.59
-321.81
-409.67
-431.77
-427.43
-402.98
-404.19
-439.23
-424.91
-398.74
-431.98
-477.61
-414.88
-420.45
-450.96
-481.53
-466.91
-521.21
-444.8
-460.08
-502.35
-447.09
-504.89
-450.69
-477.85
-497.96
-533.14
-518.97
-531.34
-518.43
-508.16
-520.76
-489.97
-523.43
-522.06
-479.66
-494.29
983.55
-504.41
-461.57
-412.61
-419.63
-488.69
-401.09
-448.65
-467.2
-435.81
-424.85
-411.92
-364.89
-399.79
-409.59
-343.57
-371.35
-306.37
-293.4
-285.9
-281.35
-313.23
-233.29
-212.23
-223.3
-203.29
-227.47
-182.14
-172.34
-144.24
-190.67
-172.5
-123.92
-146.85
-56.91
-84.11
-100.18
-24.85
-3.21
-55
-36.55
13.47
-33.18
55.56
47.43
60.77
69.49
112.03
121.4
83.07
183.72
176.46
146.52
128.24
233.22
251.63
194.37
222.89
220.27
225.65
271.52
288.7
272.91
271.35
271.42
369.3
298.35
366.23
381.45
348.3
397.84
350.92
425.68
371.91
372.16
418.67
476.52
471.4
444.82
452.17
488.36
430.72
478.32
458.93
504.84
472.62
461.36
540.65
503.26
513.79
547.64
460.43
480.43
544.14
532.71
480.54
531.87
474.63
522.35
458.66
500.17
473.79
504.92
501.92
426.96
463.02
464.7
480.73
405.12
448.12
410.04
418.78
465.62
384.83
446.54
373.87
362.75
361.02
350.33
353.44
303.55
338.21
340.05
305.75
306.54
255.83
243.08
217.92
223.94
263.69
243.69
217.61
240.44
181.47
191.04
168.63
94.5
79.39
152.74
121.53
118.14
70.39
20.31
66.83
-21.77
25.8
-41.82
-12.26
-41.91
-94.67
-104.47
-73.94
-141.31
-127.78
-95.67
-140.45
-154.08
-185.31
-224.05
-242.41
-201.08
-217
-238.23
-284.28
-244.56
-241.21
-316.06
-303.39
-329.4
-348.3
-366.64
-362.21
-337.23
-336.01
-412.03
-372.13
-446.12
-412.4
-383.65
-412.11
-474.54
-396.1
-477.56
-421.84
-488.06
-464.78
-429.93
-470.68
-445.4
-440.07
-519.52
-476.32
-502.41
-476.35
-507.99
-479.47
-524.47
-450.81
-472.01
-477.87
-466.44
-545.59
-449.73
-535.08
-503
-476.82
-484.33
-433.27
-431.75
-452.66
-472.03
-427.62
-490.3
-445.21
-407.96
-463.1
-423.82
-364.68
-392.51
-370.37
-392.51
-344.5
-373.67
-332.27
-349.61
-373.12
-300.9
-275.9
-275.41
-279.41
-295.31
-302.75
-293.43
-263.06
-250.62
-192.75
-153.08
-195.81
-207.7
-122.16
-111.27
-81
-78.23
-46.89
-118.71
-65.79
-46.02
-60.01
17.83
-49.74
14.51
53.17
83.37
57.02
20.33
46.43
54.84
107.5
106.63
133.46
199.05
214.22
176.34
233.47
185.17
247.64
284.53
266.34
259.07
255.13
263.98
270.88
323.14
307.21
362.78
322.08
332.36
320.59
394.83
370.01
435.35
364.5
374.4
375.89
400.76
411.94
424.23
424.94
412.34
420.52
500.33
485.64
467.04
483.24
467.02
500.01
455.1
490.73
546.56
462.24
504.88
527.26
452.38
456.37
475.95
449.13
508.52
509.55
461.54
496.94
439.14
506.75
443.34
422.64
460.51
481.59
474.14
404.96
439.61
414.96
397.38
410.19
452.57
424.59
425.71
390.52
388.05
328.28
322.49
325.04
360.71
290.36
328.4
1811.29
265.33
258.74
272.67
236.79
273.22
249.18
203.28
233.38
139.57
166.98
112.15
121.79
76.76
112.29
131.2
77.36
55.17
46.57
63.12
7.18
-23.26
-33.65
-73.33
-82.86
-79.91
-45.41
-69.09
-124.08
-81.98
-148.26
-181.03
-121.78
-136.49
-187.06
-183.35
-177.44
-212.94
-208.61
-261.48
-246.98
-319.58
-304.77
-334.84
-302.61
-385.84
-391.58
-376.5
-336.73
-403.69
-414.29
-418.62
-409.46
-446.42
-419.85
-467.57
-410.87
-465.29
-432.67
-466.85
-475.49
-499.55
-436.08
-519.4
-482.42
-515.88
-523.6
-480.07
-522.61
-471.12
-515.89
-544.89
-454.9
-545.85
-451.97
-498.01
-470.5
-509.88
-495.19
-471.37
-495.42
-475.73
-486.05
-517.67
-513.41
-494.14
-493.85
-438.64
-447.64
-487.96
-418.66
-416.1
-434.94
-372.08
-402.46
-387.32
-356.69
-379.59
-359.2
-364.02
-383.53
-361.98
-340.95
-301.41
-243.51
-230
-249.58
-247.18
-230.64
-271.27
-205.16
-158.36
-216.45
-176.15
-139.73
-165.12
-128.94
-80.9
-112.33
-60.31
-63.96
-30.09
-28.93
-69.98
-46.67
29.76
21.67
9.98
7.75
74.12
105.38
58.97
113.8
173.65
184.56
199.75
117.75
145.55
221.76
241.17
237.21
196.95
218.56
306.86
280.85
288.15
327.37
327.98
319.06
354.36
350.23
344.12
333.39
385.98
373.15
375.01
426.98
440.39
438.47
477.08
421.2
394.9
476.6
454.07
498.95
429.43
506.95
2000.71
526.81
483.76
505.91
510.32
445.6
487.16
544.73
500.33
515
515.66
541.52
544.33
537.73
537.18
503.48
484.07
488.6
445.92
525.44
487.53
502.71
457.74
426.82
444.51
456.65
479.73
423.47
425.93
392.58
448.94
416.05
407.6
365.21
337.44
348.64
389.46
298.32
302.22
287.43
292.6
307.82
242.25
233.95
275.06
207.33
262.69
193.2
242.82
184.99
161.75
152.04
150.28
137.97
114.06
74.58
118.55
31.08
69.6
73.42
57
8.72
-47.82
20.54
-80.76
-67.2
-71.51
-124.38
-74.06
-146.17
-139.82
-134.71
-144.14
-207.4
-220.39
-163.63
-191.32
-220.67
-220.06
-204.97
-250.98
-239.93
-310.86
-276.59
-263.38
-332.04
-354.85
-334.56
-403.05
-335.32
-372.59
-374.07
-393.81
-412.75
-429.13
-374.15
-440.36
-484.63
-393.67
-495.78
-483.69
-454.11
-463.68
-472.8
-445.28
-438.13
-478.98
-523.63
-475.52
-496.62
-447.32
-467.21
-454.16
-523.15
-524.23
-484.67
-452.24
-453.71
-477.01
-492.64
-513.79
-443.53
-477.86
-522.56
-447.38
-470.55
-437.82
-490.09
-452.42
-425.76
-460.97
-464.79
-389.83
-461.12
-410.58
-367.98
-427.24
-376.35
-406.84
-356.61
-319.44
-390.57
-305.17
-294.52
-339.56
-256.24
-331.62
-282.26
-269.16
-208.22
-223.34
-263.25
-205.83
-166.1
-219.33
-190.2
-173.94
-97.76
-123.11
-121.02
-85.55
-82.98
-29.47
-13.03
-55.89
-28.63
-29.23
-15.52
48.83
70.06
68.28
62.48
128.58
78.39
160.99
139.18
152.12
181.04
184.43
176.37
218.66
235.65
224.59
203.4
296.8
244.03
296.51
312.19
357.63
330.97
358.46
299.26
350.12
333.88
395.63
417.38
385.55
439.39
379.25
412.53
441.07
412.52
460.1
402.49
488.18
427.5
467.42
482.55
440.87
458.83
519.2
471.58
511.71
445.09
533.63
508.78
468.72
463.79
541.53
523.6
521.27
534.47
534.68
492.05
515.14
482.73
454.4
523.93
476.77
503.61
485.48
414.46
460.38
443.83
469.1
464.93
458.2
382.35
399
357.36
370.79
388.21
352.49
389.81
321.19
295.21
322.77
313.19
298.5
253.29
282.64
300.58
303.05
242.61
258.75
257.28
207.78
148.69
197.04
117.38
150.39
149.71
114.58
131.26
100.86
74.41
96.42
66.59
-3.06
39.57
24.42
-2.67
-36.78
-48.32
-84.56
-42.23
-66.54
-74.68
-83.89
-178.25
-189.98
-208.66
-224.51
-170.06
-178.58
-260.63
-251.02
-282.59
-300.13
-314.26
-292.42
-317.95
-257.4
-333.71
-314.56
-360.44
-321.63
-365.51
-365.02
-405.74
-362.47
-420.19
-454.15
-401.4
-471.28
-404.97
-411.49
-483.26
-455.52
-437.16
-510.66
-435.97
-483.66
-446.59
-439.77
-449.57
-514.68
-493.52
-450.48
-475.97
-469.91
-486.14
-503.14
-496.58
-529.34
-491.92
-509.55
-510.29
-445.27
-491.09
-503.61
-442.6
-434.17
1020.09
-458.2
-457.79
-502.82
-419.81
-438.86
-447.7
-472.37
-441.12
-412.7
-407.56
-397.82
-351.55
-345.33
-360.59
-402.63
-338.14
-285.33
-285.6
-318.68
-343.26
-324.57
-308.93
-302.29
-285.43
-224.55
-206.09
-226.48
-212.26
-210.62
-137.47
-181.49
-117.9
-163.62
-103.82
-106.53
-118.65
-45.75
-17.16
-55.99
22.37
-27.28
-7.17
-5.81
46.99
36.08
64.74
72.58
126.12
98.17
83.3
157.63
156.25
146.04
158.21
203.63
262.17
238.32
231.09
291.35
313.12
246.77
326.91
330.1
363.96
283.15
370.01
333.48
345.55
394.51
381.2
362.37
378.79
372.31
445.23
470.6
439.5
477.11
439.83
421.29
469.35
505.48
483.21
517.35
522.56
477.04
484.13
481.12
463.4
504.77
473.33
459.64
518.18
497.72
523.75
476.07
540.59
469.84
532.75
451.71
491.07
442.62
530.3
435.59
436.18
481.11
462.75
441.38
471.43
433.71
402.35
420.2
432.98
440.97
374.28
411.68
400.3
336.44
330.82
381.59
311.85
332.13
307.83
357.27
348.63
318.98
234.38
243.13
229.02
231.28
181.35
227.28
218
215.02
172.75
143.75
189.91
144.39
130.45
129.07
34.97
60.66
52.06
-2.62
3.94
57.53
-48.1
-8.38
-27.11
-43.28
-62.28
-89.52
-50.81
-136.46
-148.78
-178.85
-204.64
-153.1
-204.39
-176.61
-194.39
-264.07
-221.95
-235.68
-269.56
-268.02
-250.48
1204.71
-337.29
-347.07
-364.21
-367.06
-387.07
-391.55
-336.75
-438.2
-363.79
-419.63
-436.75
-467.87
-457.97
-474.71
-410.12
-500.59
-480.79
-422.42
-470.85
-432.59
-460.07
-525.67
-499.49
-515.87
-491.08
-517.95
-513.79
-531.18
-485.94
-495.22
-507.99
-520.71
-535.81
-460.45
-466.94
-532.71
-464.84
-523.38
-514.55
-487.28
-491.65
-446.17
-505.35
-454.91
-477.74
-424.88
-476.23
-478.58
-449.29
-400.93
-385.07
-351.71
-427.65
-391.12
-326.36
-384.62
-352.89
-384.92
-335.15
-330.99
-353.29
-246.3
-289.61
-249.07
-256.61
-224.34
-249.12
-209.85
-230.6
-188.78
-174.42
-163.23
-182.2
-139.37
-131.61
-123.91
-46.29
-39.32
-79.53
-49.94
18.87
8.22
-33.05
-20.32
10.6
83.35
63.5
98.2
74.09
104.85
139.73
146.11
163.62
193.42
200.83
214.85
190.38
195.83
237.74
274.84
227.88
255.5
251.13
252.65
357.39
356.4
331.6
389.16
362.98
377.55
403.26
374.71
407.36
389.71
458.25
376.61
430.37
394.75
435.19
403.43
452.39
459.3
509.81
437.33
501.02
485.46
512.7
529.48
541.3
453.27
482.92
512.69
486.6
472.84
466.21
477.08
450.99
459.94
455.54
526.65
474.88
519.96
515.36
504.4
518.05
435.36
417.18
453.21
446.98
409.97
393.57
403.02
428.84
394.17
457.8
447.34
342.55
387.68
365.89
358.35
351.12
293.77
308.65
351.2
261.38
318.82
245.87
299.63
298.58
256.33
191.43
182.5
206.92
166.39
178.17
179.52
116.59
139.6
111.85
80.57
42.02
66.03
76.85
80.58
-13.64
45.8
-37.55
-56.87
-69.32
-40.93
-55.21
-28.42
-126.13
-74.03
-153.81
-110.32
-198.18
-118.13
-217.03
-205.51
-213.96
-185.86
-265.92
-220.67
-244.03
-322.8
-325.88
-327.19
-270.83
-297.73
-370.98
-313.36
-397.68
-358.49
-385.49
-373.55
-441.82
-431.05
-396.45
-463.44
-400.39
-432.75
-488.08
-462.17
-426.27
-510.49
-447.01
-434.9
-494.95
-451.33
-435.98
-523.11
-521.91
-470.11
-485.31
-463.71
-542.2
-498.4
-509.76
-544.04
-483
-535.4
-479.52
-543.56
-512.55
-527.01
-464.13
-513.59
-443.21
-444.2
-463.33
-431.21
-438.47
-468.05
-481.02
-457.68
-468.7
-394.24
-400.61
-438.96
-375.32
-343.19
-365.34
-376.81
-362.67
-364.09
-363.7
-297.83
-296.56
-255.41
-256.01
-270.92
-294.05
-275.05
-192.79
-264.48
-196.67
-198.24
-198.98
-191.43
-152.03
-181.23
-110.89
-115
-57.03
-94.79
-48.79
-93.77
-17.28
-17.44
-1.22
-1.61
21.29
2.69
28.36
46.64
49.98
109.32
134.55
94.56
121.57
153.43
182.55
173.57
174.04
179.3
226.75
290.83
282.12
284.82
246.78
327.62
341.85
316.59
283.93
306.26
317.91
330.42
378.57
346.32
388.9
424
459.64
387.12
380.62
436.28
490.85
451.33
412.17
502.46
422.7
474.55
1937.64
526.67
455.66
524.67
463.76
470.41
449.99
535.53
545.89
458.37
542.82
525.3
485.57
513.08
463.34
498.99
522.55
457.07
503.5
528.56
506.01
485.6
482.17
491.81
489.6
452.9
478.92
427.47
438.16
437.14
367.21
385.88
392.63
354.47
420.4
324.56
332.62
386.9
363.42
285.11
341.17
261.61
247.27
321.73
227.73
240.48
243.22
205.85
244.22
226.3
133.03
115.87
149.42
102.36
95.04
69.15
100.55
114.45
36.51
30.57
56.26
26.05
26.84
12.97
16.4
-72.66
-99.15
-115.79
-80.05
-150.34
-159.35
-121.63
-103.85
-119.54
-132.39
-225.42
-251.6
-250.17
-194
-235.38
-268.94
-276.46
-231.84
-337.88
-348.2
-286.63
-292.37
-294.63
-397.43
-363.33
-329.98
-346.7
-431.46
-422.35
-456.53
-450.64
-455.14
-413.17
-443
-446.23
-443.36
-481.79
-513.58
-456.54
-458.96
-519.8
-522.02
-453.82
-499.47
-533.02
-448.35
-493.86
-537.49
-505.36
-543.51
-506.33
-453.42
-544.88
-516.3
-538.17
-478.28
-539.33
-535.29
-496.27
-474.88
-469.52
-480.04
-480.25
-476.92
-452.6
-455.25
-470.58
-401.93
-448.62
-413.66
-365.88
-376.79
-412.94
-370.95
-406.26
-367.88
-338.48
-306.1
-350.15
-272.9
-275.28
-275.14
-324.25
-254.07
-208.13
-230.92
-215.99
-210.55
-161.55
-160.48
-158.3
-167.91
-187.03
-163.64
-104.91
-117.27
-75.75
-94.2
-86.59
-57.38
-4.82
-2.01
1529.32
6.08
12.2
7.11
43.86
40.39
88.49
140.87
91.84
134.68
171.44
209.11
226.45
214.98
167.11
256.09
276.35
215.26
240.28
288.32
282.43
295.28
297.35
364.13
293.17
306.58
333.76
375.67
377.87
407.56
440.69
452.67
417.78
430.87
394.32
459.58
408.96
435.98
418.12
509.42
440.23
447.41
435.88
467.31
517.55
502.13
515.45
447.8
494.93
499.55
541.78
456.86
538.62
536.6
520.21
496.86
544.83
497.52
462.49
506.8
522.46
439.93
436.94
460.63
483.3
506.75
416.06
458.79
393.51
397.99
417.92
382.31
400.78
445.86
377.17
387.89
358.56
358.17
332.06
327.23
364.63
281.59
267.55
246.43
231.65
290.83
217.39
189.59
188.41
211.14
188.62
210.04
190.71
157.11
176.77
144.06
135.12
84.89
56.46
25.51
51.1
3.86
25.4
37.28
-31.22
1.33
-68.68
-9.7
-38.56
-62.19
-137.63
-81.2
-175.86
-109.16
-192.55
-200.18
-209.05
-186.2
-208.65
-204.1
-237.86
-255.02
-291.45
-235.26
-336.14
-265.67
-318.38
-295.25
-378.02
-382.07
-319.99
-329.2
-414.26
-416.3
-445.14
-407.08
-443.22
-376.01
-445.26
-468.79
-483.29
-417.58
-491.6
-481.06
-474.04
-508.76
-500.94
-523.66
-444.81
-484.33
-532.52
-466.96
-509.44
-525.08
-477.82
-483.45
-495.9
-509.84
-449.13
-498.86
-459.29
-485.33
-488.74
-536.43
-457.34
-462.91
-484.9
-462.4
-420.38
-459.9
-448.48
-404.95
-464.81
-469.83
-420.05
-384.24
-380.34
-391.13
-386.14
-347.54
-332.63
-348.12
-364.92
-291.76
-362.33
-331.06
-277.22
-325.26
-251.95
-273.61
-261.98
-264.13
-241.28
-188.71
-171.61
-138.59
-127.38
-121.31
-114.05
-85.42
-105.14
-135.92
-117.05
-91.95
-67.85
-48.96
-63.61
-13.66
38.18
-20.12
82.34
38.22
101.6
60.4
120.74
132.92
85.19
147.75
143.75
190.22
189.4
156.33
221.13
253.63
223.18
249.68
267.75
274.34
324.4
278.02
292.18
366.95
288.58
375.8
313.31
411.93
393.37
414.3
440.39
410.55
383.75
378.31
424.79
443.08
459.95
483.84
453.12
500.78
479.18
461.66
476.22
477.74
460.29
482.57
471.2
469.95
532.86
471.21
544.55
485
518.04
481.66
473.13
509.81
543.77
481.82
448.94
451.97
453.99
461.67
525.62
451.96
427.31
414.59
484.42
418.77
402.17
447.05
452.46
398.72
455.15
386.21
424.31
341.77
390.2
401.99
328.51
372.83
285.87
359.36
277.41
334.62
311.63
250.18
212.13
237.71
266.77
173.76
164.09
192.8
159.19
201.19
136.32
123.82
102.97
55.41
83.2
98.43
32.82
71.28
9.94
11.8
14.26
4.57
-79.46
-89.23
-51.94
-88.45
-52.08
-145
-91.52
-162.8
-102.76
-116.68
-170
-161.78
-172.28
-171.13
-254.26
-213.31
-279.86
-311.66
-322.61
1222.48
-274.01
-313.34
-295.75
-369.91
-336.96
-386.32
-336.63
-426.77
-379.19
-380.75
-446.18
-429.26
-399.67
-438.2
-469.49
-456.5
-425.26
-496.53
-452.82
-488.59
-432.97
-508.28
-459.27
-534.87
-455.7
-490.72
-521.38
-494.45
-464.31
-505.53
-485.03
-521.23
-486.88
-500.82
-501.6
-455.02
-514.13
-518.72
-448.84
-476.55
-488.25
-437.17
-452.53
-506.84
-493.21
-408.39
-420.71
-425.51
-470.73
-387.4
-387.66
-356.78
-413.91
-371.04
-361.89
-324.54
-319.84
-343.61
-291.49
-283.51
-319.22
-249.44
-257.41
-259.92
-300.55
-230.16
-232.72
-193.07
-169.88
-214.91
-191.75
-157.07
-134.9
-112.67
-159.17
-92.67
-136.39
-68.98
-88.81
-52.95
-0.78
-56.14
15.84
14.79
75.51
32.71
92.21
98.98
80.57
57.07
146.15
101.33
127.38
123.55
156.62
178.09
194.18
243.3
206.21
248.7
228.73
262.57
259.95
278.75
296.81
299.56
295.4
372.55
338.92
386.27
338.4
363.55
419.48
429.67
441.14
413.21
381.48
447.54
399.3
416.34
489.96
434.09
504.53
520.8
455.42
432.45
517.87
505.71
491.45
461.72
541.02
545.74
470.3
528.16
492.23
463.96
455.25
541.81
481.26
539.25
486.09
474.63
521.9
507.4
525.11
516.76
439.92
432.02
438.4
468.79
448.56
484.91
474.34
469.63
394.97
450.5
419.67
380.65
382.14
395.91
361.93
315.97
346.43
367.51
313.43
264
1790.97
237.37
229.41
296.08
187.94
199
193.5
202.39
218.75
151.19
137.86
167.62
140.36
146.54
126.27
62.62
35.08
18.89
-6.46
-10.5
-10.14
-47.93
-72.82
-73.1
-90.72
-67.19
-87.33
-129.83
-130.93
-87.85
-121.15
-173.82
-173.98
-202.41
-219.69
-217.6
-279.68
-214.51
-248.17
-294.62
-260.27
-308.1
-265.74
-298.18
-357.42
-294.34
-385.08
-347.85
-386.7
-348.75
-386.45
-385.34
-415.46
-403.54
-385.04
-445.73
-393.07
-441.88
-481.14
-433.61
-438.5
-477.88
-477.27
-455.42
-495.56
-497.93
-528.9
-480.21
-518.65
-486.67
-474.7
-530.61
-505.08
-473.4
-493.95
-485.09
-522.19
-484.85
-519.02
-496.3
-492.65
-524.19
-515.69
-515.57
-464.95
-505.14
-423.6
-418.07
-483.21
-484.31
-447.01
-413.76
-394.48
-443.17
-407.45
-426.3
-367.85
-351.8
-324.2
-344.11
-381.83
-307.05
-338.53
-342.2
-279.77
-284.05
-248.52
-291.84
-215.1
-247.64
-199.7
-175.93
-172.14
-192.85
-105.77
-99.74
-104.55
-90.09
-138.04
-84.94
-40.1
-83.85
-40.74
-53.59
-14.69
-11.5
58.74
72.91
76.9
40.7
91.04
102.68
98.79
166.58
97.31
126.01
185.45
145.91
161.67
191.91
216
281.22
286.97
290.92
272.68
272.56
340.6
312.44
334.2
302.05
316.12
408.55
328.88
368.95
413.2
378.29
424
376.15
458.9
415.04
439
409.5
414.96
410.27
449.71
467.44
432.95
449.8
453.81
529.35
540.12
471.95
538.66
533.54
450.71
481.53
471.31
460.7
527.7
458.34
455.99
488.2
514.88
476.46
503.32
514.53
433.58
519.38
486.57
490.77
421.58
469.85
434.44
405.98
383.23
423.54
440
399.83
354.25
354.59
426.49
409.33
396.85
313.41
309.73
277.82
346.07
351.59
323.96
314.93
228.45
237.65
252.98
252.02
189.6
223.07
230.6
141.89
172.96
117.73
174.42
116.6
81.32
54.99
95.28
81.93
86.29
16.02
48.22
24.03
-52.56
-14.69
-23.89
-99.7
-100.73
-113.8
-69.21
-107.41
-101.19
-153.94
-155.18
-206.68
-191.11
-186.35
-267.12
-221.32
-262.58
-262.56
-307.52
-267.05
-312.22
-267.34
-312.01
-311.48
-377.48
-348.27
-399.71
-363.7
-399.73
-425.49
-385.83
-438.88
-395.25
-477.96
-467.84
-491.04
-442.11
-491.43
-426.14
-447.94
-442.38
-429.41
-462.73
-462.93
-487.84
-500.1
-512.27
-474.54
-518.94
-474.5
-517.18
-515.98
-529.76
-463.98
-521.71
-456.12
-520.49
-456.07
-447.38
-447.03
-454.92
-485.58
-424.01
-443.5
-471.98
-448.69
-476.62
-399.37
-478.33
-437.29
-417.44
-394.33
-419.36
-345.04
-346.44
-386.31
-359.69
-314.7
-337.26
-283.86
-305.75
-344.11
-288.69
-260.89
-225.66
-206.96
-222.32
-266.21
-242.64
-242
-208.87
-126.71
-142.9
-111.5
-131.72
-67.89
-65.44
-58.31
-91.13
-11.87
-42.96
-12.67
-34.95
1476.32
-4.05
57.94
63.35
101.74
92.98
136.3
125.99
75.64
94.21
124.02
215.39
147.71
237.68
214.05
197.66
204.67
257.51
280.21
286.17
271.51
250.55
276.67
312.46
292.51
345.98
312.27
368.06
345.97
365.58
404.64
409.14
405.71
405.38
462.42
424.35
433.48
501.12
429.92
456.43
478.18
471.12
433.92
496.47
525.68
537.24
535.49
477.05
530.73
461.84
498.22
507.4
546.28
528.86
537.48
533.07
519.2
505.33
467.63
456.82
437.7
467.67
480.73
494.35
421.23
510.17
452.73
463.79
414.17
400.4
406.93
392.73
390.05
400.12
401.19
364.94
407.68
321.41
388.03
355.5
279.84
297.21
317.15
261.53
239.63
225
254.15
194.01
185.94
194.83
180.45
225.98
152.31
133.49
137.35
93.07
116.84
132.22
82.4
35.54
74.01
54.19
-20.48
-30.87
9.74
-25.64
-39.27
-4.04
-21.92
-113.02
-92.81
-89.37
-107.91
-94.58
-177.74
-124.58
-155.05
-184.75
-194.3
-261.48
-264.02
-261.91
-255.18
-244.95
-239.29
-336.1
-266.02
-332.85
-351.1
-362.92
-314.88
-371.07
-370.65
-393.88
-427.71
-425.92
-443.71
-401.06
-474.87
-431.06
-453.26
-484.63
-410.45
-415.54
-456.7
-440.02
-432.05
-451.72
-518.67
-528.66
-479.31
-509.59
-501.32
-492.76
-534.51
-462.53
-465.35
-522.14
-460.4
-461.57
-465.76
-488.33
-451.74
-507.71
-493.91
-473.33
-473.95
1046.59
-462.81
-435.3
-457.52
-468.31
-398.23
-466.41
-471.17
-436.07
-408.8
-424.01
-401.72
-399.76
-328.6
-344.17
-350.57
-376.18
-292.72
-271.48
-279.99
-328.93
-258.97
-257.31
-306.47
-233.77
-279.5
-261.79
-174.21
-221.79
-169.53
-140.18
-139.7
-99.87
-117.65
-131.57
-60.44
-98.76
-51.33
-44.43
2.76
-0.15
-36.74
-30.63
31.95
61.07
14.88
100.05
115.81
80.73
110.18
157.16
154.76
197.52
128
169.06
237.68
184.24
207.06
200.92
224.34
295.87
282.57
331.17
271.08
360.16
315.73
366.52
362.24
400.2
378.1
405.84
387.88
417.23
433.93
371.51
411.76
470.04
410.56
443.87
445.52
425.24
441.07
470.57
522.53
467.64
458.22
485.99
483.87
542.17
463.19
528.26
505.13
480.97
465.06
480.61
494.89
478.02
520.9
470.16
481.99
490.4
479.41
516.94
453.33
438.16
440.92
470.01
418.88
439.66
481.2
418.39
391.12
381.91
387.08
405.47
346.6
434.82
418.4
398.08
328.81
355.17
333.3
368.17
325.38
292.86
262.46
266.89
268.52
205.11
197.79
176.45
203.61
184.35
130.61
119.8
113.73
102.79
78.76
110.59
111.26
33.08
101.95
1.54
16.68
15.93
-14.65
-36.39
-1.76
-76.68
-43
-22.8
-76.92
-83.72
-105.62
-90.3
-136.91
-118.46
-180.83
-173.4
-237.33
-255.94
-247.79
-253.16
-213.6
-316.96
-299.12
-306.13
-299.08
-355.45
-286.04
-349.21
-331.09
-349.62
-333.47
-422.31
-431.73
-362.34
-444.21
-434.73
-378.15
-445.9
-430.85
-476.85
-453.06
-439.22
-455.36
-467.8
-469.3
-439.54
-475.41
-459.22
-475.53
-466.62
-543.06
-543.33
-484.56
-503.04
-529.3
-534.75
-536.22
-531.96
-480.13
-484.84
-501.35
-501.37
-461.59
-518.63
-459.4
-482.38
-509.59
-495.08
-433.89
-420.72
-439.33
-416
-467.84
-440.27
-384.69
-384.76
-406.32
-352.08
-410.78
-398.05
-318.86
-373.64
-287.2
-289.27
-295.24
-309.67
-251.62
-281.79
-265.6
-277.61
-243.6
-207.81
-224.99
-166.19
-198.17
-180.64
-156.64
-153.13
-136.59
-113.15
-106.04
-114.43
-46.7
-61.08
-34.08
-21.41
-2.38
-29.81
-6.26
0.99
55.1
78.64
58.85
116.86
159.3
145.44
153.79
202.48
205.21
157.48
152.86
173.46
187.55
218.14
230.4
234.64
278.14
321.53
336.07
313.63
289.36
297.73
349.21
354.54
372.46
367.39
395.94
389.3
435.26
466.11
392.64
411.15
482.67
484.42
487.34
490.42
478.55
519.63
523.62
492.96
484.9
459.42
514.93
505.86
471.91
478.23
484.32
477.48
533.82
461.68
481.28
497.09
459.27
522.49
481.52
450.19
470.76
442.98
451.75
504.44
474.6
457.74
504.81
410.5
481.77
420.48
415.95
467.94
398.7
445.76
441.73
366.43
345.59
372.12
392.42
302.56
380.6
355.32
303.88
263.67
1827.93
287.18
295.8
275.96
277.43
243.28
182.12
238.74
142.07
135.91
155.24
113.63
102.94
103.58
90.93
87.24
103.18
42.48
16.85
52.74
19.32
-56.09
-64.71
-48.77
-72.39
-81.86
-96.59
-121.86
-91.25
-148.08
-174.32
-166.72
-132.2
-230.22
-205.26
-199.37
-237.44
-204.42
-248.26
-271.25
-277.77
-249.87
-318.64
-268.55
-335.25
-359.03
-355.57
-344.98
-353.27
-360.82
-419.84
-392.48
-361.36
-370.87
-467.09
-436.5
-442.12
-485.25
-409.77
-507.42
-490.9
-438.28
-507.21
-478.78
-518.81
-468.86
-474.7
-525.71
-470.41
-527.75
-526.12
-512.02
-545.38
-481.16
-503.33
-454.84
-474.98
-490.84
-501.62
-455.99
-460.29
-490.69
-450.58
-478.55
-470.25
-464.87
-508.47
-436.38
-481.23
-474.36
-433.17
-383.14
-415.44
-415.85
-430.29
-360.54
-355.74
-346.35
-392.64
-316.6
-378.11
-361.76
-339.44
-303.58
-307.21
-303.16
-233
-277.22
-237.2
-185.68
-226.47
-158.33
-140.93
-192.85
-174.69
-108.11
-104.31
-73.37
-67.97
-132.68
-39.59
-76.44
-85.97
-71.52
-48.95
34.47
-20.34
55.48
65.96
36.51
75.55
80.99
77.4
156.18
98.82
177.69
199.17
184.95
213.9
228.8
179.61
205.99
226.49
217.95
242.14
257.54
332.23
358.16
368.85
343.71
335.76
378.21
338.8
354.27
338.72
436.48
455.12
394.25
418.01
414.07
457.65
427.11
473.09
484.01
477.88
472.77
455.05
1968.75
476.26
465.1
468.19
498.86
476.3
522.36
491.85
494.82
543.63
511.91
517.85
468.66
449.22
513.05
511.03
463.11
447.73
463.89
485.55
462.54
430.68
514.9
430.56
434.67
445.76
403.22
477.99
439.35
407.57
382.41
399.58
438.64
424.61
391.19
407.91
325.74
313.64
365.47
352.93
336.44
333.78
330.66
308.45
210.86
195.31
238.9
224.28
218.46
143.36
191.43
134.72
189.11
164.6
150.92
65.16
73.16
93.28
16.85
23.38
72.09
49.67
-29.39
28.15
-58.68
-18.26
-111.61
-44.87
-44.16
-87.11
-153.53
-87.67
-188.97
-126.63
-207.71
-241.71
-220.42
-224.9
-229.37
-285.02
-253.01
-245.29
-323.81
-303.35
-301.38
-307.26
-340.21
-392.52
-336.86
-333.22
-405.66
-397.97
-429.9
-429.94
-456.09
-444.29
-378.82
-421.61
-459.77
-460.97
-474.38
-508.7
-491.57
-427.07
-513.85
-525.57
-523.48
-525.75
-447.6
-517.16
-466.82
-493.76
-514.15
-489.09
-459.59
-523.05
-486.1
-545.86
-508.03
-479.7
-460.93
-486.75
-485.68
-465.07
-523.28
-445.35
-487.3
-508.73
-505.11
-494.92
-416.83
-395.22
-476.56
-467.17
-391.44
-449.35
-359.54
-362.76
-417.79
-401.19
-351.03
-353.09
-299.23
-355.42
-349.07
-273.27
-279.91
-281.4
-255.33
-241.63
-211.12
-261.92
-179.86
-235.02
-146.11
-115.73
-150.95
-134.34
-146.3
-92.87
-99.93
-71.96
-26.93
0.44
-39.84
3.18
15.26
-23.23
-9.12
18.2
32.87
26.1
41.78
137.91
140.14
141.91
146.03
174.38
131.34
172.88
178.71
248.29
255.75
278.65
294.56
227.35
311.16
283.96
332.36
298.9
371.29
359.41
325.91
354.95
400.86
394.98
407.71
370.88
385.68
467.31
403.5
391.43
448.74
489.84
429.32
454.27
448.44
447.36
505.84
518.81
469.45
525.66
494.9
500.34
523.56
512
532.58
524.23
469.14
509.75
458.35
489.09
504.18
524.98
491.96
488.76
439.57
451.89
481.69
498.29
431.18
431.82
470.98
474.03
467.33
422.84
382.97
447.94
376.26
427.5
419.17
342.51
392.11
327.45
384.39
297.78
364.77
344.44
303.72
341.14
286.12
295.05
256.16
291.64
228.89
266.22
209.33
149.27
133.07
175.3
127.09
158.22
94.8
112.97
98.54
95.16
77.32
36.18
73.91
-28.75
-19.57
-2.3
-39.05
-76.77
-8.55
-114.62
-78.91
-74.33
-151.79
-131.36
-127.55
-195.11
-201.74
-232.14
-218.52
-202.03
-238.52
-280.3
-244.87
-259.29
-304.34
-304.91
-319.64
-333.8
-301.47
-352.47
-365.73
-386.53
-384.22
-422.76
-414.89
-398.51
-437.79
-428.23
-410.39
-477.38
-412.75
-475.67
-449.53
-463.81
-492.14
-496.28
-460.12
-466.77
-438.12
-467.98
-516.27
-472.67
-496.32
-465.5
-507.02
-506.15
-475.16
-530.01
-486.34
-523.56
-546.67
-510.38
-470.36
-458.51
-466.71
-526.93
-497.68
1044.47
-466.47
-474.82
-498.52
-417.72
-419.82
-485.66
-470.23
-425.02
-381.83
-391.03
-397.25
-402.5
-422.5
-377
-405.14
-308.85
-308.9
-297.6
-319.97
-329.01
-309.69
-294.91
-292.83
-229.03
-248.57
-190.16
-202.54
-161.72
-137.19
-196.93
-170.94
-104.9
-127.74
-68.47
-118.63
-117.4
-18.9
-1.95
-71.96
15.95
-34.11
59.34
-14.77
68.14
98.09
40.08
55.21
146.36
95.86
101.95
119.25
200.98
128.36
152.59
168.93
190.25
274.15
241.05
287.95
313.91
308.31
291.2
339.35
332.53
311.22
386.88
391.74
393.43
321.99
409.08
360.23
400.11
366.34
373.7
463.55
416.51
399.12
422.91
413.65
439.01
497.38
457.35
518.57
456.42
441.73
494.85
497.84
538.67
462.46
498.68
498.97
518.16
503.82
525.2
450.1
455.14
503.59
494.79
464.55
533.22
489.24
527.48
442.09
518.03
482.29
442.7
442.95
466.28
400.95
453.09
408.63
386.63
450.16
390.71
443.62
370.75
344.91
321.11
359.81
298.29
385.98
326.58
318.49
310.84
288.11
280.67
256.54
249.02
264.43
214.43
237.18
228.57
171.18
149.44
114.96
177.49
89.09
86.26
84.7
60.35
96.73
29.7
-6.3
52.31
15.24
7.45
-14.77
9.49
-62.76
-63.82
-121.51
-52.07
-150.18
-130.81
-130.76
-122.49
-142.12
-207.83
-153.97
-236.81
-258.39
-214.8
-234.71
-266.44
-243.36
-294.18
1217.3
-297.28
-314.26
-329.14
-301.41
-320.83
-358.33
-391.49
-371.12
-402.25
-424.99
-405.43
-410.04
-382.73
-425.52
-400.43
-489.81
-478.67
-438.41
-506.51
-460.6
-527.87
-519.13
-480.96
-534.42
-517.06
-537.98
-455.21
-521.41
-545.05
-490.04
-509.23
-543.75
-529.62
-485.25
-543.76
-496.6
-497.45
-524.45
-524.37
-523.05
-472.66
-515.67
-463.74
-462.36
-461
-409.25
-429.93
-481.16
-445.15
-455.28
-456
-448.43
-398.52
-406.41
-410.24
-318.43
-306.55
-304.51
-307.47
-288.91
-300.51
-319.37
-274.95
-231.84
-213.27
-232.87
-212.93
-254.45
-189.25
-177.07
-216.89
-165.62
-101.28
-176.12
-160.08
-86.09
-79.56
-65.03
-60.42
-25.79
-62.34
-38.39
-6.88
31.56
57.18
81.17
78.91
124.23
109.25
134.08
166.98
96.18
117.56
145.92
196.1
240.65
231.55
191.81
229.16
217.85
260.95
237.63
268.18
318.07
330.69
291.2
343.94
318.89
383.66
342.35
422.36
435.53
370.24
443.08
427
417.97
434.39
460.59
430.59
500.41
504.99
459.14
508.85
428.76
517.72
512.03
484.37
501.33
469.83
497.64
515.26
547.77
480.56
539.86
471.09
483.82
530.35
505.41
531.43
502.93
494.7
523.2
513.57
507.86
426.69
492.79
509.23
418.51
475.04
413.07
471.93
390.81
382.15
445.24
441.02
371.97
398.27
410.44
355.44
384.8
336.61
345.73
327.44
366.85
268.38
247.09
259.09
315.02
251.13
246.75
202.42
245.16
194.71
144.7
182.61
204.64
188.34
176.35
88.3
66.21
131.27
84.33
62.45
35.99
3.29
47.52
38.04
-16.1
-58.32
-83.66
-72.9
-64.54
-98.92
-125.55
-85.53
-103.11
-194.36
-151.32
-213.77
-228.45
-196.27
-214.16
-201.61
-225.69
-296.59
-265.48
-299.61
-288.57
-323.75
-329.12
-287.2
-345.59
-342.47
-319.45
-422.17
-426.54
-350.48
-446.83
-415.74
-413.99
-439.54
-438.18
-468.31
-466.07
-501.27
-491.57
-475.54
-471.97
-517.36
-475.89
-492.27
-483.45
-469.03
-479.68
-476.96
-461.34
-507.48
-495.59
-459.61
-512.75
-530.98
-458
-508.83
-464.38
-498.47
-485.71
-462.56
-485.55
-487.73
-426.93
-493.35
-447.96
-452.07
-424.76
-438.9
-436.56
-445.19
-374.2
-396.79
-353.38
-365.83
-430.82
-418.44
-356.44
-319.51
-318.34
-284.81
-292.26
-276.82
-345.1
-299.88
-298.01
-227.65
-283.39
-225.08
-173.08
-161.31
-171.71
-159.11
-190.32
-102.71
-126.11
-89.11
-149.74
-78.56
-110.22
-109.42
-65.68
12.67
-41.31
-44.25
40.52
-13.58
95.06
46.23
86.94
120.03
138.22
130.96
180.39
106.41
121.93
164.54
226.48
182.68
260.65
236.29
275.6
213.86
304.17
283.1
250.55
312.7
317.86
321.97
311.55
343.36
318.82
337.22
380.39
403.64
401.52
371.95
461.06
446.11
446.88
423.15
490.84
425.28
426.39
489.32
425.12
1981.85
482.27
490.88
510.84
512.62
538.86
448.71
546.19
452.05
490.65
533.26
513.04
510.96
483.49
476.98
500.7
465.55
508.21
441.74
438.33
433.44
466.69
454.01
505.01
412.93
450.89
470.43
445.37
473.94
464.61
444.02
375.73
351.73
416.14
347.78
413.19
404.62
319.41
305.4
350.56
267.75
311.1
322.07
244.92
278
229.79
240.49
184.02
208.62
214.77
159.12
143.74
181.31
181.31
81.29
145.1
70.55
88.72
75.59
14.82
61.51
50.19
-18.41
-57.87
-7.75
-88.67
-42.32
-57.27
-84.3
-64.59
-77.08
-97.26
-108.84
-139.19
-166.64
-145.3
-211.52
-199.15
-216.53
-212.09
-238.68
-224.4
-324.61
-294.46
-261.42
-351.42
-292.58
-335.46
-400.53
-352.21
-368.18
-385.69
-441.48
-427.01
-459.46
-404.74
-428.8
-392.52
-401.81
-447.65
-421.48
-437.05
-494.83
-446.26
-435.44
-433.54
-463.96
-502.81
-526.63
-517.65
-510.91
-471.3
-462.55
-509.28
-524.25
-485
-548.53
-497.75
-522.72
-511.74
-446.81
-534.01
-490.77
-453.13
-522.13
-476.73
-514.73
-429.33
-425.14
-470.44
-406.92
-414.49
-469.97
-442.06
-444.09
-392.46
-431.3
-405.56
-387.94
-380.9
-327.67
-339.91
-359.51
-349.09
-345.13
-307.82
-311.13
-311.44
-220.79
-215.2
-244.54
-268.64
-163.23
-216.48
-227.77
-172.07
-133.77
-139.52
-141.08
-86.42
-101.18
-68.36
-86
-94.11
-55.09
-24.94
9.54
1508.52
58.08
40.09
7.45
62.08
77.54
145.67
163.42
150.92
112.99
143.31
133.06
201.11
215.74
178.1
200.47
228.46
217.37
251.63
246.87
269.59
328.99
308.51
346.3
377.5
341.97
317.22
321.09
352.42
429.99
438.65
390.42
368.33
465.45
391.22
460.86
399.26
450.6
433.07
460.6
433.73
467.35
503.58
476.91
467.88
475.21
459.22
451.42
521.78
485.71
532.88
498.03
543.57
482.67
464.07
521.61
502.66
542.44
472.98
509.56
487.92
472.67
486.04
470.44
418.69
428.34
446.08
438.17
434.78
466.18
462.23
423.36
410.27
372.34
430.9
407.12
380.75
354.38
309.41
304.92
364.53
285.41
295.09
262.62
267.68
267.71
281.54
198.58
225.15
196.96
203.41
225.71
185.2
195.06
127.64
118.52
156.13
68.02
51.57
42.94
51.29
25.51
-3.5
-15.67
16.65
5.2
11.6
-84.87
-86.48
-51.91
-59.2
-126.17
-145.75
-118.22
-152.41
-168.69
-139.73
-214.47
-186.05
-204.64
-240.32
-259.18
-314.18
-294.62
-271.1
-271.38
-313.36
-301.29
-296.92
-371.72
-320.25
-400.59
-397.49
-371.89
-442.08
-381.21
-428.24
-393.87
-436.16
-405.29
-467.74
-481.14
-427.6
-432.42
-481.9
-475.29
-525.18
-495.63
-444.72
-447.04
-470.9
-452.53
-525.24
-461.98
-449.65
-524.52
-505.4
-479.97
-496.04
-543.83
-505.82
-463.43
-464.84
-529.85
-441.27
-488.94
-430.23
-497.58
-427.17
-423.88
-429.7
-428.4
-453.57
-466.14
-386.93
-459.17
-426.08
-405.67
-403.34
-375.4
-405.44
-394
-350.37
-298.72
-360.55
-295.32
-269.89
-293.96
-274.78
-243.97
-263.13
-214.56
-276.88
-171.83
-188.8
-155.46
-153.38
-122.77
-164.16
-162.4
-126.08
-115.08
-84.97
-49.48
-31.08
-89.74
-53.56
36.12
-6.45
44.58
58.02
86.68
85.74
54.39
62.39
114.95
127.87
181.69
135.53
193.88
191.25
229.26
249.58
250.53
195.53
210.92
300.94
292.98
254.8
325.26
309.86
359.9
377.39
363.58
373.69
329.82
400.07
344.77
425.94
449.68
450.11
465.78
467.58
427.39
473.56
414.24
469.33
426.67
477.67
463.81
493.37
459.93
449.04
473.25
470.12
456.06
496.24
485.05
485.88
487.65
504.44
453.08
537.61
528.76
536.63
517.48
523.21
457.86
488.02
492.43
469.26
473.58
439.76
448.56
467.92
405.54
405.16
434.76
379.67
379.66
415.45
433.89
421.92
380.23
382.43
387.57
363.18
379.44
365.67
325.9
333.06
325.59
288.07
245.77
241.08
271.4
216.03
241.56
216.09
141.92
211.16
147
159.82
142.92
99.22
105.5
74.5
105.64
23.99
74.4
-18.87
52.14
-17.16
18.79
14.08
-48.94
-99.41
-79.41
-100.15
-98.63
-140.16
-112.42
-141.55
-206.74
-155.87
-192.13
-164.68
-246.77
-219.94
-292.46
-216.28
-269.72
-240.06
1199.77
-284.87
-340.31
-355.9
-384.37
-396.07
-390.26
-410.89
-360.73
-418.29
-417.17
-409.49
-389.93
-478.7
-402.05
-439.66
-475.92
-419.92
-484.73
-425.61
-500.49
-431.62
-467.5
-480.12
-460.64
-465.66
-510.45
-542.72
-449.12
-517.05
-457.68
-529.6
-522.07
-458.34
-493.31
-447.55
-453.97
-486.17
-462.96
-467.83
-507.22
-516.02
-482.59
-478.51
-493.04
-463.49
-423.63
-442.25
-420.63
-468.26
-460.16
-419.59
-381.68
-376.97
-424.5
-331.58
-321.85
-317.62
-358.61
-321.29
-290.72
-336.82
-280.68
-293.02
-246.54
-230.1
-257.78
-242.66
-215.41
-167.15
-226.46
-132.47
-148.31
-127.8
-152.3
-126.17
-138.95
-117.47
-46.71
-80.18
-50.35
-77.69
-20.26
-39.08
-14.28
65.84
-0.09
74.02
121.69
69.13
138.46
146.31
148.49
153.82
194.15
221.06
223.03
202.05
210.34
214.96
218.63
260.41
305.99
258.07
287.61
348.14
347.47
314.17
358.52
374.09
345.53
368.95
404.65
368.2
390.38
428.71
463.36
438.93
425.58
485.42
434.97
424.33
447.39
513.52
435.26
509.99
514.85
440.55
495.03
499.33
465.86
540.37
459.06
544.42
452.17
462.97
456.39
478.65
520.36
518.69
475.69
537.23
445.69
526.12
523.53
500.22
444.83
459.14
507.49
443.88
454.36
422.09
482.47
379.13
408.66
407.88
388.61
393.9
404.61
401.46
406.67
368.42
306.7
367.3
282.27
319.03
312.4
1802.22
280.84
294.93
294.85
282.88
193.76
185.1
218.13
173.82
213.31
145.19
133.05
102.44
120.82
112.2
83.53
41.98
33.84
-0.56
-24.44
-36.52
-15.23
-19.67
-82.15
-36.03
-72.49
-47.13
-144.37
-82.92
-164.46
-133.39
-187.52
-195.19
-154.44
-206.86
-189.79
-252.78
-200.63
-257.57
-250.13
-257.81
-317.9
-354.27
-342.95
-301.54
-352.93
-363.27
-352.5
-382.91
-333.36
-416.35
-390.58
-374.2
-388.49
-439.01
-435.79
-455.45
-399.42
-438.13
-486.44
-417.78
-484.84
-521.55
-512.27
-459.01
-527.26
-461.16
-485.56
-479.09
-490.91
-478.64
-482.46
-514.38
-475.33
-543.36
-482.44
-531.57
-529.11
-495.54
-480.84
-474.53
-509.76
-516.7
-473.89
-438.74
-419.11
-464.03
-411.8
-395.07
-402.77
-397.7
-454.84
-422.36
-436.31
-418.2
-358.54
-340.25
-390.95
-334.41
-324.92
-321.73
-284.17
-297.65
-310.63
-289.94
-305.56
-266.57
-242.64
-234.04
-182.37
-199.09
-183.07
-140.14
-213.6
-190.93
-89.13
-105.35
-84.66
-126.73
-38.86
-111.93
-55.24
-8.85
-8.65
29.17
51.93
56.02
35.51
75.3
41.28
109.97
76.23
83.14
109.77
185.75
151.61
211.59
172.66
197.19
177.56
212.49
287.36
226.81
304.94
254.91
250.07
260.42
365.16
348.18
374.48
356.11
338.31
400.57
420.03
416.52
435.72
416.68
367.45
446.91
450.57
486.35
420.51
441.64
508.13
471.79
452.39
428.09
523.11
455.98
484.98
452.41
528.73
529.17
463.54
543.67
504.98
508.46
536.81
518.7
464.39
479.62
466.83
488.75
444.66
527.97
505.9
519.38
478.22
469.44
429.75
491.61
438.75
494.45
477.74
458.27
440.62
392.84
370.38
389.82
358.34
424.53
384.35
310.66
309.25
381.8
326.38
308.18
274.66
247.85
234.37
245.55
237.51
197.37
238.73
232.84
197.7
181.61
143.67
133.95
96.69
152.14
83.18
95.49
119.93
41.55
28.68
58.81
12.86
45.48
3.72
-48.68
-27.5
-83.19
-65.97
-37.75
-71.69
-86.76
-160.91
-157.13
-108.05
-187.42
-166.06
-181.97
-236.24
-239.77
-207.42
-239.95
-221.07
-283.35
-271.27
-257
-282.93
-293.91
-287.41
-317.32
-347.52
-358.6
-420.86
-373.45
-359.31
-369.75
-430.3
-425.78
-426.22
-438.56
-479.49
-443.66
-474.65
-444.16
-432.96
-460.44
-433.86
-498.85
-488.23
-444.56
-491.37
-488.63
-545.42
-454.61
-496.89
-460.42
-478.71
-495.23
-501.28
-488.83
-474.36
-512.28
-472.79
-483.23
-459.54
-461.7
-469.33
-456.72
-490.62
-470.98
-469.22
-462.74
-488.92
-406.63
-474.71
-435.48
-415.52
-433.9
-360.12
-394.48
-418.56
-325.91
-380.64
-324
-285.35
-329.5
-320.82
-242.11
-270.16
-232.63
-262.95
-210.47
-228.68
-250.01
-200.63
-168.66
-211.33
-183.71
-96.28
-149.84
-94.66
-99.78
-82.6
-36.24
-66.65
-23.5
-14.55
-19.7
1536.65
21.76
22.17
6.54
80.72
85.43
139.71
147.62
170.79
97.43
114.63
141.02
193.25
176.61
240.85
226.56
200.54
249.46
264.13
282.39
250.36
334.83
335.53
286.04
304.11
328.43
397.77
325.07
405.43
362.85
407.83
449.46
462.22
433.2
430.32
435.5
405.78
461.84
417.44
440.86
482.79
512.3
451
460.38
488.54
502.72
513.38
475.75
522.91
509.05
459.36
525.8
480.14
486.23
457.93
484.02
508.97
531.33
465.18
509.56
523.68
508.82
490.69
491.84
433.06
482.1
502.39
456.5
471.58
391.5
411.15
388.86
431.61
404.95
415.01
418.74
345.69
383.02
380.9
341.91
287.08
300.94
281.51
311.42
301.53
276.47
250.34
275.26
246.92
213.42
167.02
144.15
201.8
194.54
100.26
158.79
149.84
98.19
66.64
31.09
14.15
52.2
0.35
-21.15
1.03
-12.62
-78
-45.02
-60.86
-32.52
-116.91
-62.87
-87.79
-176.1
-144.24
-158.89
-161.88
-237.37
-157.62
-218.4
-243.92
-295.05
-295.71
-236.81
-280.17
-319.47
