80.69
75.14
5.98
47.68
10.29
-40.67
11.73
5.22
-40.77
-96.31
-40.7
-47.67
-84.58
-160.59
-100.11
-188.52
-149.87
-151.87
-191.93
-206.8
-216.65
-194.87
-234.31
-273.95
-261.26
-284.83
1238.96
-310.04
-312.38
-297.13
-322.14
-391.19
-359.55
-385.65
-433.34
-442.87
-427.52
-456.21
-404.13
-445.58
-468.68
-451.47
-460.73
-503.65
-485.15
-484.02
-453.42
-511.13
-531.22
-490.35
-485.76
-451.15
-453.37
-541.97
-531.69
-502.49
-548.35
-476.1
-531.74
-499.74
-507.89
-498.8
-518.54
-537.54
-464.42
-527.52
-511.44
-449.29
-441.54
-513.09
-508.75
-478.46
-432.65
-406.31
-441.02
-470.39
-390.66
-444.54
-353.11
-341.94
-360.37
-360.16
-358.38
-345.63
-384.9
-315.97
-273.05
-302.96
-310.8
-231.47
-236.35
-272.53
-279.42
-236.98
-218.36
-166.57
-201.35
-180.39
-109.4
-97.01
-139.72
-129.46
-116.73
-122.11
-48.55
-17.24
-55.98
-14.57
30.75
39.5
-26.78
7.95
24.86
17.25
88.37
106.86
150.83
75.24
127.61
123.1
203.2
133.75
166.08
161.61
180.24
216.88
282.65
250.74
301.02
265.71
267.29
298.4
297.26
372.67
388.23
330.77
359.56
376.59
346.17
438.74
383.58
462.42
442.45
418.1
484.83
487.71
426.69
417.02
497.98
498.32
469.46
500.16
442.31
521.67
531.35
478.7
480.19
457.17
537.69
498.16
526.96
480.16
477.24
515.77
480.18
517.27
454.32
524
438.78
490.33
454.81
452.16
477.3
416.62
426.84
463.36
433.18
455.73
434.55
416.35
447.23
448.88
354.84
365.71
408.12
343.58
336.7
346.58
344.2
330.89
322.5
333.88
1788.39
318.36
301.89
249.42
243.56
249.21
171.64
249.86
196.95
143.11
150.79
111.4
143.83
94.55
119.61
114.79
74.17
13.53
77.61
56.1
-21.57
16.01
-30.54
-1.85
-60.96
-73.24
-52.58
-64.63
-97.63
-141.78
-177.1
-164.7
-137.19
-221.36
-231.52
-187.68
-199.23
-219.21
-214.23
-271.26
-281.65
-326.05
-273.47
-337.52
-334.87
-378.65
-376.51
-349.2
-404
-326.7
-397.12
-429.83
-411.02
-411.74
-434.26
-434.91
-434.77
-476.96
-412.25
-493.55
-469.55
-457.45
-439.72
-503.39
-456.22
-469.2
-476.19
-516.32
-514.27
-541.42
-482.26
-494.81
-460.57
-524.96
-521.17
-473.62
-449.73
-451.71
-526.01
-535.02
-511.08
-522.4
-485.49
-449.2
-444
-453.48
-457.8
-407.33
-430.68
-437.14
-453.98
-385.57
-398.01
-370.59
-451.26
-409.91
-348.51
-414.71
-330.56
-334.97
-349.06
-289.49
-351.69
-319.99
-345.69
-236.92
-274.94
-254.08
-221.5
-238.48
-230.43
-204.11
-230
-137.35
-187.46
-124.65
-115.35
-120.02
-122.86
-49.34
-89.25
-22.74
-47.11
-13.54
13.55
11.08
5.52
29.55
23.72
15.84
116.65
88.51
128.81
105.84
109.56
189.78
144.52
223.78
229.01
244.8
258.3
221.42
260.65
283.46
309.62
260.98
334.12
357.41
288
316.35
358.32
324.06
389.6
367.06
379.43
355.12
391.23
412.97
383.68
451.14
407.08
481.71
458.98
468.11
418.9
449.69
479.08
1978.48
451.34
441.63
468.35
506.5
539.23
538.34
464.2
512.79
543.62
510.29
527.5
522.55
449.7
492.71
526.89
538.81
519.77
494.3
438.02
473.36
460.15
463.99
415.37
421.26
438.16
480.52
480.24
458.7
396.8
421.96
439.76
347.14
374.8
422.42
366.21
402.71
294.16
367.69
337.39
331.28
274.46
259.84
316.35
269.66
235.75
212.59
220.08
178.72
206.97
170.73
167.53
200.44
150.75
79.15
76.02
97.11
52.36
54.98
7.13
67.39
-7.46
37.55
-53.03
-49.45
7.21
-44.5
-48.26
-62.39
-57.69
-151.3
-82.51
-182.69
-197.04
-155.23
-159.99
-236.99
-242.7
-252.54
-215.8
-277.48
-272.39
-253.6
-298.09
-354.23
-290.19
-316.53
-308.76
-312.37
-371.95
-345.07
-339.44
-371.81
-388.58
-456.36
-442.95
-410.2
-426.3
-463.82
-423.3
-439.51
-487
-421.21
-508.73
-455.52
-445.61
-512.12
-536.64
-505.75
-448.17
-501.3
-480.33
-456.75
-542.68
-470.21
-541.92
-506.51
-500.85
-456.26
-469.15
-468.95
-459.4
-443.74
-471.46
-432.12
-490.26
-494.62
-497.44
-438.01
-407.58
-470.13
-449.38
-458.76
-409.59
-441.03
-410.19
-420.73
-390.39
-347.52
-332.86
-405.5
-394.34
-298.26
-291.26
-357.41
-260.42
-326.59
-228.03
-259.79
-219.58
-237.18
-234.51
-253.6
-243.3
-230.88
-170.52
-124.54
-181.91
-169.49
-122.02
-96.23
-111.61
-59.19
-99.13
4.55
16.66
-9.06
1529.83
-6.7
59.47
43.74
78.85
52.81
67.25
155
130.52
127.39
160.24
203.17
228.62
159.22
257.52
233.86
257.35
247.53
250.14
277.45
247.39
293.78
314.93
309.19
301.1
354.04
361.62
344.63
364.77
435.44
446.49
367.53
424.27
404.2
436.9
487.76
441.17
412.85
488.98
418.42
443.05
466.46
492.49
489.5
477.27
513.66
498.74
538.58
450.91
520.85
537.02
532.65
483.63
500.2
533.87
519.03
533.01
491.32
506.63
459.27
488.1
434.39
491.7
498.45
436.92
476.44
406.89
455.81
458.47
431.85
472.41
407.48
410.55
419.79
387.54
418.81
355.72
373.33
326.5
293.62
320.47
272.15
273.51
286.2
247.48
269.59
293.69
227.66
224.59
207.21
236.83
228.22
215.18
160.74
185.98
138.55
135.92
111.88
94.41
32.31
56.81
6.72
-18.69
42.88
36.22
-50.41
-68.64
-95.61
-111.48
-72.87
-118.81
-85.67
-131.3
-155.93
-136.12
-150
-205.59
-217.95
-250.16
-219.02
-261.02
-298.14
-312.46
-256.14
-293.88
-262.18
-267.54
-370.34
-311.63
-373.3
-361.46
-368.33
-336.85
-406.39
-386.01
-370.72
-379.89
-410.84
-399.48
-479.46
-492.79
-431.91
-460.82
-486.37
-454.39
-491.73
-520.05
-532.19
-452.22
-503.12
-463.79
-508.93
-475.77
-515.32
-537.91
-483.43
-514.89
-506.01
-464.53
-493.09
-457.79
-524.47
-444.19
-493.88
-501.22
-462.43
1013.09
-442.08
-511.03
-483.81
-495.07
-465.94
-469.99
-437.48
-415.01
-379.65
-358.66
-434.03
-350.94
-402.3
-378.11
-329.4
-307.79
-359.39
-292.07
-323.6
-304.24
-280.45
-235.35
-297.4
-280.65
-273.71
-208.1
-165.78
-235.78
-206.76
-180.41
-124.69
-127.54
-159.09
-66.2
-88.41
-63.43
-119.56
-27.24
-39.77
-73.12
31.66
-18.47
-26.89
18.44
34.06
102.47
120.9
131.87
98.57
77.7
154.78
185.12
137.15
148.25
201.61
218.43
187.46
282.79
250.78
300.35
252.47
279.24
328.44
301.74
358.22
374.09
348.23
346.71
413.52
407.38
432.33
384.8
409.06
371.13
469.88
470.66
462.21
424.96
489.11
488.45
424.27
422.52
493.33
525.64
460.12
502.34
488.55
469.44
471.21
504.66
469.96
450.71
470.49
512.98
477.76
530.26
452.24
525.65
486.28
509.07
449.87
443.27
450.65
494.52
520.32
483.72
508.06
496.72
472.14
426.1
479.32
429.04
460.9
411.42
410.59
391.7
384.83
405.53
410.47
399.36
293.06
326.01
278.42
337.42
288.97
287.53
224.54
277.05
251.5
256.08
181.35
240.28
179.29
177.42
182.7
131.5
172.33
135.44
91.76
79.31
69.63
12.86
49.84
61.43
-11.55
44.12
9.57
-53.54
-63.24
-49.25
-67.2
-44.62
-61.7
-126.84
-103.65
-103.41
-186.46
-223.44
-150.15
-187.87
-209.39
-238.86
-263.89
-286.14
-238.71
-331
1240.85
-286.38
-293.26
-344.15
-332.41
-363.15
-370.49
-419.98
-401.29
-401.38
-435.84
-374.04
-410.36
-407.5
-443.53
-425.44
-491.81
-476.78
-462.77
-508.82
-496.07
-490.82
-435.46
-471.28
-465.3
-496.03
-488.18
-482.34
-505.38
-525.77
-457.33
-539.02
-529.96
-449.88
-456.23
-461.45
-497.56
-510.85
-448.2
-470.17
-521.78
-513.53
-506.18
-496.32
-447.57
-500.66
-457.7
-459.42
-422.79
-394.27
-434.76
-366.45
-427.4
-404.74
-382.58
-327.48
-399.55
-315.22
-316.77
-313.99
-335.76
-269
-275.03
-274.24
-318.12
-258.85
-289.13
-203.55
-244.62
-218.84
-146.12
-218.93
-129.31
-182.85
-105.95
-144.85
-85.23
-107.02
-123.55
-101.85
-66.84
3.08
-42.54
36.29
50.48
61.17
-4.63
103.08
60.96
94.32
110.79
129.35
87.68
176.71
197.44
168.76
156.25
186.35
192.5
212.17
214.54
276.92
278.03
303.61
280.06
264.47
346.5
281.99
360.08
337.18
348.64
412.26
423.64
402.37
355.99
435.7
424.32
443.62
398.89
411.1
449.55
411.39
463.17
500.51
485.65
510.25
445.13
442.49
532.47
450.27
489.83
493.87
513.42
455.19
526.17
517.5
526.56
481.85
470.12
545.83
467.86
469.75
447.99
531.05
517.71
472.55
516.42
483.28
425.64
495.96
415.83
460.56
482.6
432.71
376.62
385.44
388.2
388.96
338.5
410.53
370.87
334.18
370.92
375.68
316.81
355.69
252.65
1754.8
228.12
295.37
235.1
222.65
256.93
159.04
189.43
161.68
150.39
168.72
113.61
93.46
117.7
118.65
115.86
78.37
2.72
26.7
53.3
2.96
-12.23
13.71
-40.29
-68.11
-54.48
-86.57
-139.57
-152.31
-175.34
-130.04
-185.1
-185.21
-166.89
-208.41
-239.06
-246.8
-248.06
-248.26
-234.85
-251.19
-243.98
-276.63
-338.19
-308.75
-335.29
-317.07
-373.02
-356.4
-403.11
-413.76
-402.74
-386.47
-446.65
-469.85
-432.41
-413.09
-484.77
-466.04
-450.31
-461.24
-453.9
-437.02
-469.72
-485.63
-462.81
-489.76
-463.31
-482.03
-542.9
-510.72
-503.43
-524.72
-480.06
-466.09
-542.28
-513.69
-464.32
-458.03
-481.35
-512.66
-491.75
-444.74
-511.11
-475.38
-456.99
-434.99
-465.34
-452.72
-473.61
-407.17
-402.89
-370.91
-431.76
-405.59
-338.69
-410.77
-394.32
-349.16
-363.05
-373.89
-295.52
-337.72
-345.08
-316.13
-288.98
-311.19
-256.53
-259.59
-220.97
-166.45
-211.24
-185.62
-155.13
-193.59
-106.89
-152.47
-97.06
-92.76
-102.77
-46.06
-85.09
12.01
3.56
24.4
6.13
16.09
49.39
46.53
71.33
58.55
111.58
150.53
107.38
156.54
154.35
214.3
210.25
205.75
186.21
234.66
230
282.85
253.1
321.86
324.02
287.8
338.36
295.08
326.24
337.87
394.54
397.61
393.59
396.51
381.65
454.77
393.76
465.18
414.52
461.23
487.33
466.27
469.11
446.84
457.12
426.47
430.42
463.09
532.25
453.27
508.18
463.88
512.82
484.16
527.96
542.14
512.08
462.13
546.37
458.08
449.37
522.02
515.26
476.91
513.99
458.17
434.05
497.06
470.26
441.88
458.16
463.7
475.03
416.34
413.3
435.39
445.96
431.48
386.14
426.46
390.15
327.78
372.06
324.83
289.34
311.3
328.65
261.4
301.82
217.4
270.49
268.89
221.64
233.22
156.8
178.79
204.6
141.31
139.01
109.57
67.47
94.53
81.98
94.67
90.6
-11.95
64.56
23.76
-20.94
-51.53
-15.77
-39.04
-19.55
-100.27
-48.08
-161.9
-126.82
-131.2
-192.4
-143.8
-149.51
-167.31
-224.04
-211.4
-214.52
-269.48
-300.27
-274
-311.53
-316.46
-327.71
-285.96
-330.81
-329.2
-385.06
-335.75
-401.89
-401.02
-363.15
-385.39
-415.13
-454.61
-478.04
-416.64
-487.6
-459.82
-452.34
-478.77
-484.3
-472.45
-438.62
-456.89
-472.66
-527.46
-463.7
-495.05
-499.56
-527
-507.15
-521.98
-511.85
-508.24
-534.27
-474.51
-490.34
-514.08
-470.98
-460.28
-447.22
-499.84
-501.36
-451.58
-471.09
-431.9
-405.75
-476.94
-443.82
-426.95
-438.89
-460.45
-416.65
-349.59
-433.43
-398.12
-415.01
-399.39
-302.67
-313.25
-327.62
-276.18
-323.84
-286.38
-323.37
-283.34
-205.05
-266.69
-196.27
-214.81
-173.34
-177.15
-161.01
-189.73
-145.63
-119.4
-70.51
-73.09
-129.37
-27.15
-73.58
-12.2
23.82
-46.96
1549.07
42.71
69.67
16.57
53.28
98.84
131.62
119.92
111.67
164.86
150.52
121.16
177.68
232.61
235.78
179.21
244.95
260.28
249.57
292.5
304.21
257.07
290.91
295.63
292.66
298.32
377.83
403.99
418.86
417.74
415.33
400.52
457.12
465.9
450.33
395.59
439.74
493.74
456.28
443.11
455.2
446.09
441.54
511.95
513.99
504.75
472.91
525.26
543.03
484.78
490.86
507.74
499.49
519.9
456.69
462.55
514.02
527.67
529.02
447.3
485.23
473.25
512.42
480.4
457.57
437.28
441.69
441.05
464.23
465.37
419.44
464.32
453.06
371.95
411.98
363.57
410.2
393.1
360.61
331.03
329.39
351.96
315.81
278.5
317.78
234.08
250.82
202.6
207.2
220.47
207.52
172.68
215.04
137.8
109.14
172.86
86.34
63.43
91.26
24.92
26.38
22.34
56.85
-36.07
31.7
-53.16
-64.14
-58.18
-90.67
-38.5
-117.16
-64.09
-135.2
-90.83
-136.94
-180.99
-131.54
-168.61
-225.23
-175.21
-186.27
-266.02
-264.42
-236.9
-311.98
-272.32
-289.22
-356.1
-373.36
-353.64
-311.7
-347.62
-335.65
-345.46
-429.88
-420.41
-420.41
-414.69
-394.2
-389.07
-456.88
-498
-411.23
-455.07
-513.45
-491.57
-435.92
-506.44
-487.44
-532
-499.14
-494.15
-502.78
-470.84
-520.11
-501.89
-499.29
-475.98
-496.76
-470.19
-520.25
-533.89
-466.6
-537.45
-490.96
-438.29
-486.8
992.22
-440.89
-501.65
-477
-401.53
-423.01
-456.35
-443.1
-391.64
-451.58
-384.34
-401.52
-418.6
-355.89
-375.19
-369.18
-362.85
-370.94
-290.54
-321.21
-285.69
-309.37
-265.94
-287.78
-230.03
-275.04
-227.84
-168.63
-211.17
-139.01
-158.01
-145.75
-96.3
-90.98
-132.64
-125.66
-90.49
-107.57
-4.33
-30.38
-27.67
-9.19
-20.78
15.18
20.37
98.1
120.88
126.93
96.9
136.61
98.52
123.44
156.3
196.72
148.67
234.3
241.28
186.49
201.2
221.53
261.16
244.8
334.08
328.71
281.54
341.23
369
345.13
344.71
339.83
339.91
381.28
409.92
409.42
372.84
453.08
417.31
443.17
496.03
481.05
487.79
507
497.68
470.97
502.19
448.79
478.78
453.89
464.48
486.69
532.4
472.26
548.27
483.2
456.64
522.68
537.37
473.85
540.6
474.17
532.32
451.88
448.15
487.27
464.57
467.95
428.17
462.02
481.48
397.35
421.4
398.68
394.13
438.47
403.39
399.02
376.97
337.53
319.57
373.43
352.62
343.79
319.3
312.21
310.52
257.92
322.09
238.45
251.7
273.05
258.59
158.02
190
220.01
144.87
109.13
107.27
90.33
154.91
77.54
76.42
111.63
34.67
47.01
58.02
-4.37
-39.58
-23.88
-7.56
-104.54
-114.49
-61.54
-64.01
-84.78
-164.24
-155.67
-143.52
-137.28
-215.78
-160.94
-175.37
-197.75
-216.83
-266.66
-259.78
-264.36
-339.78
-317.51
-312.39
-311.94
-326.54
-366.88
-353.96
-347.42
-425.35
-426.75
-370.75
-432.97
-381.15
-454.02
-421.97
-481.94
-420.17
-446.15
-484.01
-493.17
-502.65
-440.31
-463.9
-480.82
-476.91
-505.45
-542.29
-542.65
-497.62
-546.02
-470.62
-477.9
-539.04
-540.59
-469.15
-533.12
-520.05
-513.76
-525.6
-472.6
-505.41
-445.06
-457.8
-437.58
-497.68
-441.25
-402.45
-478.65
-470.41
-435.27
-439.41
-438.41
-439.47
-389.22
-340.12
-424.86
-390.91
-335.93
-354.53
-314.42
-274.03
-263.22
-344.4
-246.77
-301.2
-272.46
-231.31
-196.29
-180.09
-248.79
-173.92
-140.69
-135.87
-182.92
-169.38
-85.07
-96.84
-78.99
-81.67
-68.82
-99.25
-26.41
26.28
-44.26
-22.23
57.54
51.68
18.51
85.05
104.21
130.53
122.84
105.25
170.57
114.96
175.33
153.29
193.92
187.61
209.14
275
291.63
236
263.97
337.59
265.97
305.6
284.45
331.31
332.8
352.61
370.01
422.94
388.91
384.21
452.73
387.96
387.7
457.12
458.4
406.24
427.81
452.53
490.1
421.79
441.38
480.16
469.63
508.05
491.05
471.27
537.41
539.17
462.05
459.74
527.2
549.37
487.8
482.24
475.14
448.72
535.1
527.06
504.6
477.98
503.74
501.51
440.89
487.8
416.3
438.4
479.69
456.47
417.31
472.82
442.97
356.93
355.61
362.88
425.73
326.92
342.29
312.47
288.16
306.54
333.44
342.69
1828.38
258.61
273.28
271.41
196.89
195.67
221.43
219.01
188.43
187.69
150.9
148.27
149.46
126.82
64.76
61.03
45.44
31.92
53.95
37.92
-26.87
39.16
-58.08
-43.61
-37.89
-82.09
-49.89
-135.35
-132.1
-119.62
-170.91
-200.41
-183.37
-222.65
-245.18
-185.19
-208.39
-275.74
-268.84
-263.07
-319.91
-317.75
-317.62
-316.9
-313.89
-364.2
-392.11
-336.63
-358.59
-390.68
-427.9
-384.78
-451.87
-365.49
-403.38
-420.17
-423.99
-455.66
-454.53
-505.38
-497.82
-488.27
-459.85
-471.43
-514.09
-442.22
-471.03
-537.43
-464.28
-516.67
-468.74
-471.18
-548.85
-453.81
-514.44
-493.89
-463.03
-456.59
-514.68
-441.46
-494.07
-528.55
-450.05
-471.19
-487.74
-462.76
-489.1
-488.63
-437.75
-466.43
-457.27
-453.52
-458.65
-404.63
-365.57
-347.64
-411.6
-361.57
-386.15
-313.16
-321.08
-353.9
-349.45
-278.11
-323.41
-300.48
-300.16
-222.46
-209.39
-267.75
-251.76
-166.08
-201.73
-203.52
-138.11
-105.98
-91.02
-74.23
-71.22
-38.62
-82.09
-9.84
-1.95
24.66
17.77
-14.79
9.56
76.11
51.03
31.85
57.98
123.2
67.74
138.85
152.35
199.59
154.8
230.65
173.57
176.91
173.62
247.86
252.59
242.98
324.65
240.04
273.02
354.73
309.16
320.11
348.3
375.63
321.48
426.33
339.93
404.26
436.51
441.06
390.06
436.23
463.44
449.79
492.39
501.71
455.07
468.76
433.28
1932.3
463.41
483.81
472.43
457.62
504.9
471.95
521.96
499.46
513.98
536.5
478.24
459.99
468.87
539.54
456.79
497.47
453.56
446.25
443.84
434.85
499.01
474.51
431.45
471.77
454.93
419.75
391.7
437.17
453.54
396.56
431.67
354.73
392.38
348.28
373.5
363.53
304.27
285.2
294.18
340.06
290.18
268.15
317.16
272.48
213.17
179.9
174.98
152.62
155.78
170.19
130.03
173.5
117.9
151.95
95.74
115.89
49.06
30.07
7.91
-18.99
-34.54
3.16
-59.88
-43.8
1.62
-22.45
-78.46
-56.46
-142.29
-113.06
-106.48
-188.38
-123.44
-145.58
-201.38
-245.17
-185.66
-245.19
-289.01
-284.44
-235.49
-316.75
-250.27
-294.04
-355.9
-336.59
-378.26
-333.09
-351.22
-419.07
-375.42
-362.21
-434.97
-420.68
-435.22
-405.63
-446.45
-420.34
-486.06
-454.29
-471.19
-435.88
-501.33
-444.03
-525.28
-452.81
-512.4
-530.95
-483.1
-491.54
-466.55
-463.85
-495.42
-531.95
-466.66
-449.9
-528.72
-479.81
-539.14
-445.01
-479.94
-475.08
-460.17
-509.14
-489.38
-443.49
-496.06
-425.67
-483.9
-438.89
-432.05
-382.25
-392.7
-375.94
-377.9
-361.5
-413.54
-363.34
-400.33
-339.99
-343.14
-309.68
-336.7
-322.7
-264.91
-261.54
-233.94
-214.32
-245.07
-243.12
-181.71
-245.38
-151.77
-219.36
-156.41
-181.45
-98.51
-163.79
-73.92
-137.35
-124.22
-62.06
-14.76
-66.08
27.56
-13.2
37.91
-17.45
14.9
86.17
48.93
40.12
100.27
85.56
136.99
183.74
115.75
215.49
152.8
159.78
181.89
245.12
288.29
283.72
257.45
301.03
256.69
302.44
285.59
295.79
322.81
349.23
385.27
420.65
359.95
431.63
391.28
433.86
463.24
410.23
385.95
488.08
403.7
493.9
434.73
477.99
433.34
428.11
466.33
482.45
532.89
530.91
465.15
507.16
469.97
513.57
484.94
457.42
543.94
524.38
531.67
447.55
468.9
498.78
449.65
520.72
524.29
441.16
449.89
506.47
486.13
458.89
405.9
442.77
411.71
442.46
386.73
413.33
428.97
442.46
428.36
385.5
405.2
364.57
331.88
296.57
290.68
358.42
343.72
269.93
279.12
303.29
278.52
199.32
192.86
161.02
165.38
147.81
122.54
169.83
121.79
166.35
150.21
80.78
35.29
111.91
93.41
46.08
52.73
29.44
-46.07
-42.21
-0.7
-50.08
-58.42
-70.7
-68.14
-92.98
-177.21
-174.92
-198.41
-207.99
-203.44
-246.13
-193.01
-277.28
-267.5
-294.55
-234.49
-265.51
-269.31
-265.55
-280.51
-370.27
-315.61
-343.86
-346.69
-347.97
-361.64
-376.18
-364.81
-373.47
-465.65
-417.5
-406.48
-440.69
-409.05
-453.7
-427.03
-486.67
-454.66
-508.99
-456.5
-500.78
-445.82
-466.04
-528.96
-517.94
-454.64
-455.73
-452.78
-547.96
-454.89
-511.25
-514.91
-470.44
-452.35
-458.97
-513.87
-457.53
-518.43
-440.34
984.48
-498
-485.42
-505.68
-471.68
-403.08
-448.84
-443.15
-396.54
-439.29
-414.79
-420.06
-422.53
-337.45
-322.05
-314.5
-333.12
-302.94
-361.23
-315.72
-256.73
-275.1
-319.12
-213.11
-253
-228.4
-206.85
-234.48
-187.44
-202.13
-193.79
-177.46
-183.48
-89.62
-153.69
-89.46
-120.94
-88
-47.52
-45.41
-17.84
-40.51
-6.76
61.04
42.34
44.91
65.27
66.44
148.29
78.04
125.65
97.65
203.81
146.6
219.38
220.48
222.79
275.85
195.99
208.14
302.57
273.4
333.62
288.6
302.65
294.76
297.94
318.62
406.99
412.99
342.03
343.04
370.33
432.69
460.67
397.24
429.89
396.21
433.72
432.83
494.79
457.9
508.16
447.13
526.15
507.03
459.45
537.05
521.98
459.29
477.56
501.91
525.44
526.29
458.67
538.04
496.62
454.75
494.75
468.86
464.71
499.9
460.32
514.65
433.75
495.11
416.33
422.6
435.78
397.14
474.27
460.16
414.89
388.25
377.3
421.74
396.56
361.8
363.51
377.37
315.11
354.32
338.76
271.37
348.54
248.06
295.26
305.26
298.27
249.85
221.89
211.56
240.98
196.83
150.68
199.49
186.98
102.36
144.89
69.52
59.83
103.93
36.63
51.62
6.46
20.25
26.25
-27.91
-13.83
-94.65
-35.41
-51.11
-49.51
-122.43
-116.19
-138.91
-193.69
-131.78
-228.24
-199.61
-231.4
-197.44
-234.2
-247.19
-305.45
-321.88
-271.15
1205.37
-343.52
-307.62
-334.05
-323.39
-319.65
-335.09
-343.75
-406.94
-367.71
-446.54
-403.73
-401.88
-440.78
-407.81
-434.6
-481.45
-445.97
-480.08
-477.65
-489.43
-512.04
-463.45
-527.16
-504.31
-541.07
-505.88
-522.89
-494.35
-454.12
-486.26
-493.41
-473.23
-492.75
-496.81
-467.97
-521.51
-468.55
-514.31
-482.79
-436.08
-444.76
-442.43
-465.78
-486.46
-420.07
-458.81
-463.34
-480.7
-472.09
-370.43
-452.2
-369.29
-397.81
-358.39
-389.76
-351.83
-363.94
-387.78
-317.02
-354.25
-329.5
-252.83
-320.1
-304.78
-240.13
-254.55
-199.67
-195.84
-171.57
-184.83
-125.62
-116.37
-95.99
-177.8
-153.57
-146.47
-37.12
-65.64
-62.64
-37.35
-72.67
19.07
-7.16
65.03
-3.22
11.77
19.59
107.84
134.76
61.99
79.13
136.25
142.44
160.31
137.45
233.45
232.42
218.52
254.01
241
256.85
227.01
328.59
337.57
309.22
281.78
341.25
344.83
320.14
387.63
339.92
355.45
406.05
364.81
366.69
464.37
466.63
452.97
429.93
467.44
419.21
455.78
501.79
517.1
507.99
462.11
449.27
486.87
504.09
459.09
490.12
508.3
479.83
537.76
543.05
482.64
525.49
476.02
493.62
496.54
477.05
473.5
488.9
481.2
500.72
454.11
498.7
473.91
498.18
401.26
487.33
385.43
412.61
442.76
457.11
396.25
366.48
415.38
326.18
316.75
385.72
303.17
288.9
357.18
327.31
295.95
274.79
235.77
297.86
239.25
187.16
219.82
181.05
159.82
220.04
184.24
112.03
94.22
112.7
103.4
111.93
25.67
75.59
74.44
66.38
-19.78
29.41
-3.43
-28.8
-94.42
-34.53
-100.19
-71.82
-142.89
-74.12
-99.2
-117.52
-177.51
-152.14
-184.46
-202.59
-210.38
-186.33
-218.72
-263.92
-267.37
-305.75
-257.89
-322.36
-286.74
-306.35
-304.57
-315.75
-341.09
-332.63
-357.48
-428.99
-382.69
-452.22
-419.46
-474.57
-389.94
-444.96
-468.06
-491
-445.7
-447.05
-471.09
-501.83
-432.43
-482.69
-498.42
-448.56
-509.79
-527.62
-539.62
-487.51
-531.35
-525.25
-523.93
-546.43
-515.63
-528.66
-467.37
-488.44
-445.57
-477.55
-508.36
-465.17
-423.16
-465.65
-475.86
-495.17
-480.05
-397.94
-404.78
-417.73
-428.63
-390.3
-377.23
-349.44
-431.82
-344.26
-334.93
-361.24
-390.02
-362.81
-348.4
-337.96
-270.4
-328.33
-264
-250.78
-251.46
-213.81
-181.2
-250.31
-178.21
-149.05
-114.17
-165.51
-116.82
-117.91
-129.02
-91.91
-38.59
-18.47
-7.34
-35.44
15.19
11.44
-15.37
0.92
81.46
44.9
33.29
50.73
128.88
165.35
162.88
176.03
167.08
223.21
194.2
251.69
231.52
191.9
243.35
232.01
260.8
268.91
268.57
265.51
337.84
373.4
365.46
322.87
398.16
412.87
377.32
423.42
420.72
363.69
425.68
435.54
433.15
441.18
431.75
407.29
497.38
430.4
465.17
1981.03
473.83
474.71
465.58
448.66
543.61
488.52
462.37
478.4
479.67
516.42
495.51
525.97
496.72
468.86
458.62
457.28
487.53
465.42
487.7
517.55
430.81
476.75
483.38
408.11
408.82
404.37
420.93
427.98
382.56
449.39
372.73
367.85
430
409.93
315.59
352.38
323.01
294.53
335.74
343.59
315.03
302.4
300.36
217.03
216.35
277.49
240.29
223.79
227.83
168.33
199.97
179.9
98.88
156.28
65.37
83
71.3
95.43
77.12
43.81
14.27
-13.75
-34.72
-29.67
-38.71
-96.94
-104.91
-50.55
-56.18
-130.68
-146.39
-168.8
-154.33
-215.99
-150.6
-249.29
-211.17
-228.19
-209.04
-249.51
-285.12
-239.14
-330.41
-258.61
-340.57
-377.82
-303.98
-366.18
-350.27
-373.02
-391.68
-383.62
-376.84
-397.03
-369.48
-433.79
-448.46
-403.88
-477.88
-441.46
-470.02
-422.38
-497.35
-526.21
-527.42
-444.59
-463.42
-505.94
-504.03
-467.54
-497.23
-536.96
-542.31
-472.53
-481.73
-534.97
-465.18
-455.8
-514.43
-535.76
-524.65
-474.67
-440.58
-505.81
-429.29
-492.28
-432.59
-468.95
-442.6
-470.96
-392.36
-469.98
-421.79
-382
-384.44
-362.52
-349.76
-329.76
-399.6
-394.94
-343.81
-325.11
-367.48
-312.16
-332.21
-259.59
-300.66
-269.82
-285.94
-217.19
-271.96
-179.2
-235.74
-214.21
-201.77
-174.15
-163.86
-115.21
-147.32
-129.4
-102.94
-20.14
-71.82
13.17
22.9
-12.45
1503.04
6.81
63.63
97.12
58.5
66.59
50.42
107.7
95.76
176.1
199.15
139.97
187.33
233.41
189.55
272.25
283.25
295.26
242.95
286.23
258.08
322.97
321.22
353.45
382.04
311.47
399.79
345.16
411.43
401.61
416.75
439.04
372.87
410.71
446.29
478.59
403.33
428.1
509.22
459.38
438.84
483.34
444.37
480.35
514.59
457.55
461.67
501.68
491.18
472.97
482.07
474.34
518.1
481.41
542.2
472.85
452.14
507.59
460.41
462.74
483.43
481.71
450.9
487.89
503.55
410.23
494.04
436.11
459.93
409.74
416.06
432.87
413.79
360.92
422.57
339.21
380.23
381.7
323.17
383.26
362.99
268.22
334.61
312.06
252.1
226.35
207.34
279.5
263.86
216.85
168.51
180.62
122.8
122.4
155.22
80.83
108.29
56.61
73.46
24.68
49.06
-11.42
-25.27
-0.17
-0.41
-42.88
0.86
-81.21
-54.01
-96.31
-129.56
-76.55
-97.24
-157.44
-113.93
-144.7
-182.73
-226.63
-244.52
-201.7
-269.46
-241.33
-217.04
-229.16
-283.57
-296.32
-351.81
-372.33
-307.35
-315.96
-358.45
-357.35
-403.41
-405.53
-391.3
-426.39
-450.85
-459.86
-420.97
-418.83
-448.59
-436.32
-502.56
-432.73
-452.16
-436.58
-439.46
-514.13
-466.61
-532.83
-489.41
-540.48
-455.07
-544.54
-495.96
-543.44
-474.45
-471.85
-505.5
-491.2
-521.42
-479.64
-463.05
-494.58
-499
-511.87
-453.88
-502.56
-450.29
-482.23
-488.23
-457.69
-395.88
-451.87
-374.89
-376.04
-365.45
-382.44
-426.87
-363.34
-381.66
-327.84
-302.87
-308.59
-312.21
-341.93
-327.36
-296.92
-279.85
-281
-248.59
-260.93
-271.84
-245.69
-195.8
-145.5
-122.66
-122.93
-171.18
-128.4
-138.62
-83.9
-54.78
-74.73
-77.25
-68.21
-45.09
-36.41
-20.28
0.46
0.23
76.38
25.6
100.74
95.27
127.94
75.52
102.48
114.91
135.93
145.39
157.4
222.6
236.28
258.08
280.43
276.58
260.59
334.72
282.69
290.31
326.73
328.59
339.89
391.56
396.67
404
348.9
396.71
443.96
463.46
439.87
451.74
462.08
423.32
459.91
415.16
493.65
506.33
435.45
434.39
510.66
516.21
447.78
475.33
478.76
454.85
524.15
546.85
540.19
485.62
512.01
526.42
474.28
493.9
504.88
501.22
500.79
452.06
465.29
445.27
459.69
439.03
458.21
492.88
474.2
472.19
398.97
417.49
452.82
371.23
429.26
371.58
342.06
389.05
314.29
341.69
298.99
345.36
310.34
341.62
277.02
317.09
310.13
304.24
250.93
235.74
230.05
174.83
216.77
138.16
115
134.14
92.9
112.31
73.33
99.9
55.49
21.77
66.09
-14.43
58.26
-43.02
-43.11
-0.48
-19.59
-105.17
-70.62
-44.61
-93.24
-149.8
-129.7
-172.35
-133.97
-134.77
-214.88
-248.53
-196.28
-227.59
-249.95
-230.55
-302.86
-324.9
1205.37
-296.75
-275.81
-364.06
-338.07
-368.88
-317.12
-345.63
-371.58
-414.63
-394.87
-393.59
-383.44
-427.35
-411.26
-443.52
-446.23
-472.44
-428.83
-455.35
-476.07
-510.89
-488.81
-452.25
-469.21
-540.66
-467.02
-473.33
-455.12
-502.31
-546.56
-547.4
-480.27
-454.11
-490.51
-455.54
-498.85
-527.34
-505.12
-504.59
-432.76
-482.86
-445.26
-463.42
-448.81
-473.33
-433.13
-443.89
-404.97
-455.73
-438.9
-460.52
-362.45
-375.58
-428.53
-355.66
-347.89
-391.91
-338.49
-374.69
-364.9
-318.07
-271.96
-317.3
-227.42
-237.39
-205.78
-243.21
-178.83
-249.92
-237.27
-221.68
-125.39
-105.72
-126.42
-156.03
-108.69
-105.75
-42.99
-74.18
-42.84
-68.88
-14.97
45.42
49.66
50.43
50.66
47.75
56.05
68.25
91.89
94.97
105.38
153.69
123.16
187.2
233.84
159.24
168.71
258.56
262.16
245.08
277.47
257.45
345.14
338.7
296.66
359.86
382.73
374.93
368.92
376.16
339.23
404.01
435.02
406.24
444.7
471.76
406.02
412.35
493.48
504.27
436.53
505.64
453.63
476.44
489.07
516.81
460.39
447.49
451.11
506.07
475.01
524.75
473.35
485.23
464.93
514.71
491.93
484.65
537.49
509.62
492.32
449.3
481.53
428.24
475
430.71
511.25
465.68
470.5
405.53
420.62
430.74
429.88
375.49
369.22
431.44
415.6
337.75
329.09
395.66
376.7
297.07
281.6
286.6
272.18
1815.7
292.56
235.35
277.36
186.39
209.79
192.2
180.32
170.99
197.73
195.53
132.79
169.06
108.42
87.2
108.42
27
7.68
58.56
29.4
-28.66
-27.59
-66.2
-32.01
-56.08
-54.67
-92.54
-151.38
-148.3
-102.03
-159.13
-186.87
-214.34
-162.75
-155.21
-188.72
-182.06
-253.76
-220.21
-242.2
-284.39
-278.91
-262.57
-286.1
-285.72
-311.94
-362.86
-354.72
-402.31
-368.19
-411.1
-433.21
-390.58
-423.67
-389.68
-421.87
-476.76
-473.78
-429.13
-493.73
-462.41
-447.17
-442.54
-437.98
-479.09
-480.52
-499.42
-470.88
-452.98
-456.56
-492.34
-493.8
-456.78
-518.5
-470.48
-498.42
-516.38
-507.68
-467.81
-479.9
-504.36
-484.02
-520.31
-523.51
-422.19
-480.84
-466.88
-419.18
-450.48
-431.06
-392.97
-392.36
-444.52
-436.15
-439.64
-350.56
-419.15
-318.72
-398.68
-309.19
-308.64
-282.2
-280.19
-336.11
-297.02
-267.35
-258.11
-257.11
-227.66
-270.41
-257.63
-150.17
-142.78
-183.17
-111.73
-99.28
-158.64
-85.37
-119.4
-105.76
-71.84
-57.24
-20.37
29.83
-32.66
-30.07
44.32
19.16
103.34
69.01
80.85
140.47
70.1
134.45
126.55
134.33
173.29
209.91
222.96
187.93
222.69
241.1
240.93
311.57
298.83
268.56
344.44
359.2
366.99
294.08
339.25
375.2
370.78
374.29
381.79
358.96
422.28
415.29
422.17
478.58
481.72
424.77
448.3
506.5
450.59
495.94
452.29
447.51
487.32
457.92
503.13
460.04
516.3
509.65
477.53
517.73
495.03
546.65
498.07
481.8
487.89
490.35
537.63
441.65
513.86
526.22
465.63
451.64
448.22
479.91
508.14
473.85
487.9
408.36
428.61
453.33
382.42
424.71
434.27
386.83
374.25
358.07
368.86
298.6
347.72
314.24
329.07
338.35
300.93
310.09
290.76
286.89
210.88
208.34
242.45
163.15
196.65
132.54
106.13
96.65
123
127.33
80.72
52.98
103.24
23.86
15.22
63.88
-27.93
-46.06
-30.11
-64.16
-22.87
-74.79
-53.52
-123.21
-129.25
-147.14
-161.49
-188.52
-124.52
-225.73
-183.24
-203.58
-257.15
-241.88
-231.03
-287.48
-238.2
-280.37
-255.48
-292.76
-294.78
-308.69
-394.53
-404.36
-340.08
-423.86
-392.31
-368.36
-438.87
-419.87
-382.35
-398.63
-440.12
-441.75
-494.84
-492.06
-511.35
-446.54
-507.26
-489.31
-457.51
-523.17
-517.12
-465.38
-497.97
-452.81
-454.49
-464.07
-504.11
-477.16
-517.18
-534.36
-485.91
-474.52
-480.21
-456.71
-486.27
-492.86
-488.88
-518.26
-493.92
-445.83
-465.61
-418.61
-490.57
-459.78
-468.02
-418.83
-405.13
-430.37
-355.64
-439.36
-370.55
-358.18
-327.84
-322.93
-327.64
-280.27
-331.42
-269.59
-283.14
-276.41
-269.34
-277.09
-233.54
-273.68
-248.31
-217.42
-194.59
-147.31
-154.95
-143.12
-87.46
-145.29
-132.34
-36.27
-106.88
-6.16
-66.69
-49.04
33.79
1523.35
37.09
56.56
38.88
46.54
80.74
51.61
70.74
139.01
132.23
121.82
162.9
178.04
157.01
213.03
214.77
236.58
204.62
281.45
273.85
321.27
287.48
319.51
305.84
329.8
331.49
349.64
328.64
376.25
428.37
365.67
405.88
377.64
463.15
396.69
460.92
404.3
492.94
481.73
448.65
433.77
465
474.59
464.37
525.13
521.37
489.63
531.99
450.21
465.41
505.48
518.94
540.39
526.39
452.55
537.79
447.19
526.91
445.36
516.63
509.56
479.78
442.01
429.23
464.48
481.39
418.67
462.97
426.61
420.91
431.27
464.55
376.48
428.09
367.94
381
368.77
395.8
320.64
387.41
331.25
284.3
258.72
308.57
317.27
289.36
297.72
262.46
209.22
258.62
241.27
214.91
172.69
155.37
194.18
177.07
113.51
139.19
125.06
103.93
54
15.27
0.86
47.42
-4.42
-54.57
-0.99
-76.48
-47.6
-87.72
-48.92
-94.2
-170.22
-98.24
-160.42
-212.66
-180.69
-165.64
-255.66
-243.07
-282.18
-238.2
-303.76
-315.2
-324.02
-340.26
-315.11
-325.55
-302.37
-313.85
-363.37
-396.35
-410.27
-370.85
-406.39
-400.48
-363.9
-395.82
-386.61
-428.16
-413.64
-481.54
-407.39
-483.85
-486.02
-455.74
-480.16
-487.57
-464.51
-474.02
-456.23
-445.63
-513.1
-499.09
-492.78
-498.41
-514.06
-508.96
-479.32
-471.87
-496.75
-507.59
-519.15
-469.03
-464.8
-432.87
-478.88
1077.62
-418.85
-433.11
-453.97
-463.14
-393.24
-462.96
-455.73
-445.89
-381.83
-400.74
-398.6
-423
-423.52
-390.33
-331.42
-366.8
-357.68
-334.34
-277.89
-259.75
-267.55
-305.84
-236.78
-262.26
-200.64
-224.38
-229.25
-154.11
-204.89
-159.26
-104.72
-97.78
-157.4
-81.19
-69.54
-63.43
-61.18
1.19
0.03
-21.15
3.46
-27.9
-17.24
54.75
20.55
119.89
137.94
132.2
105.37
177.55
155.98
160.72
226.44
190.98
214.9
247.57
225.75
252.51
247.23
315.72
277.33
321.96
317.76
318.06
302.68
363.65
346.44
338.69
336.82
422.71
391.87
396.52
428.44
379.51
474.2
455.73
473.09
463.7
493.82
456.56
470.3
511.84
464.23
494.37
520.19
466.82
528.83
473.29
479.64
531.66
518.3
541.23
465.19
510.45
502.34
472.5
529.2
493.9
483.36
529.5
484.4
523.08
501.53
511.61
496.89
431.83
446.48
413.21
446.15
402.46
439.68
393.3
399.11
414.45
387.59
380.18
389.47
382.97
384.56
295.75
311.91
364.72
352.74
325.42
282.43
227.05
246.15
205.92
202.42
232.72
183.22
203.89
180.78
192.72
127.48
98.29
78.69
66.71
116.06
73.02
109.09
48.1
-12.04
47.2
10.22
-21.2
-37.86
-0.57
-79.29
-53.95
-53.45
-79.54
-96.22
-84.62
-115.05
-137.67
-145.98
-164.6
-243.24
-188.45
-272.12
-196.08
-244.66
-310.89
-244.82
-309.65
-268.89
-305.87
-295.13
-361.55
-375.54
-409.54
-413.59
-404.9
-412.63
-387.6
-431.59
-427.49
-467.43
-432.54
-457.25
-453.49
-433.1
-444.11
-487.31
-475.5
-489.65
-431.21
-521.33
-486.71
-445.81
-512.06
-470.24
-477.33
-535.27
-481.25
-525.15
-502.34
-546.9
-459.14
-521.7
-505.95
-487.88
-461.34
-535.52
-512.81
-476.55
-505.5
-462.16
-451.88
-480.21
-406.34
-475.56
-473.68
-424.56
-438.12
-449.79
-413.41
-423.57
-400.06
-341.47
-370.55
-335.49
-343.84
-341.29
-365.53
-270.41
-253.97
-316.68
-257.63
-274.72
-258.26
-187.32
-242.3
-169.52
-188.7
-215.51
-178.39
-138.75
-159.12
-150.87
-145.13
-54.73
-61.99
-54.69
-78.6
-17.81
-60.57
-0.46
45.77
10.58
54.04
50.02
31.04
68.31
146.74
92.47
175.49
187.01
199.09
181.16
177.98
211.24
244.51
260.49
279.35
260.25
303.94
311.57
308.35
254.95
296.19
364.76
355.58
397.05
314.34
378.68
367.67
369.7
420.21
452.98
395.91
383
407.62
401.29
437.61
435.62
433.89
440.35
429.1
435.9
494.08
444.24
482.42
535.67
511.37
449.49
500.73
524.64
502.86
473.79
472.77
484.87
479.29
480.89
529.52
481.77
540.06
441.6
495.02
433.43
460.04
518.76
477.42
437.76
448.72
447.26
466.37
468.88
469.3
404.45
440.91
361.35
417.51
408.21
358.51
349.17
342.26
331.89
325.05
320.57
309.59
1771.41
308.17
292.83
295.35
228.79
272.21
212.03
194.84
187.96
155.45
167.56
135.81
109.88
81.89
57.52
34.64
73.18
84.23
66.55
12.26
32.77
-51.44
4.2
-24.28
-96.43
-44.6
-44.44
-98.7
-74.27
-167.89
-109.44
-160.83
-124.16
-220.17
-192.92
-215.15
-239.83
-235.37
-236.57
-237.19
-319.27
-297.9
-292.52
-356
-292.68
-291.68
-387.61
-361
-341.07
-365.84
-399.94
-426.57
-452.57
-396.42
-389.57
-414.78
-418.62
-453.75
-475.96
-468.94
-493.78
-419.95
-439.25
-463.84
-488.23
-439.13
-497.77
-541.57
-464.43
-459.63
-509.82
-484.23
-477.87
-489.18
-488.01
-491.06
-537.56
-456.42
-529.7
-521.68
-466.46
-496.03
-451.67
-519.4
-445.46
-416.73
-471.01
-461.35
-466.44
-410.38
-476.33
-419.04
-409.92
-450.14
-385.52
-395.96
-364.16
-362.09
-386.17
-301.77
-346.86
-290.8
-272.78
-330.55
-327.91
-269.03
-315.32
-260.47
-228.68
-277.19
-242.64
-228.48
-146.54
-130.36
-130.17
-169.46
-171.26
-154.85
-110.68
-48.56
-36.24
-82.81
-78.08
23.55
9.89
9.26
16.54
54.92
3.2
30.45
63.79
131.01
132.87
80.87
100.18
141.44
142.36
226.5
197.2
163.89
214.84
279.96
240.39
245.43
275.86
302.1
340.06
339.8
325.71
362.93
330.42
355.05
398.86
372.23
363.83
423.03
377.78
440.68
394.23
452.47
401.68
414.26
480.67
434.56
439.1
465.92
425.72
2014.03
509.31
483.24
521.96
443.18
469.33
489.47
456.3
525.18
527.19
509.09
469.64
516.19
486.12
478.19
533.7
534.98
487.07
500.98
513.14
435.75
436.22
439.97
498.96
406.51
427.21
480.98
397.61
401.08
440.76
407.99
408.48
393.15
398.62
392.57
316.24
394.49
346.15
334.86
321.55
300.64
277.28
326.57
275.35
299.23
234.7
235.35
252.19
222.92
142.16
200.55
139.42
150.24
136.22
124.87
145.34
107.98
66.57
34.98
11.73
16.4
4.8
-30.98
6
12.67
-13.82
-107.4
-83.37
-139.29
-101.55
-104.11
-180.4
-121.13
-134.45
-152.64
-154.81
-179.56
-268.4
-274.2
-235.4
-239.42
-287.08
-289.13
-300.85
-317.85
-325.68
-335.76
-325.76
-378.57
-320.68
-410.26
-404.84
-436.74
-401.03
-422.71
-374.69
-385.22
-440.38
-459.85
-499.53
-426.62
-485.91
-501.37
-436.47
-443.77
-469.88
-508.29
-538.01
-498.63
-484.72
-485.04
-484.35
-502.42
-540.39
-472.5
-524.33
-538.7
-450.78
-464.06
-519.77
-533.35
-441.87
-517.89
-503.85
-496.98
-468.67
-505.68
-413.81
-504.22
-411.25
-482.73
-404.31
-424.25
-457.83
-408.64
-417.06
-402.4
-379.85
-405.1
-404.08
-390.8
-352.81
-318.51
-301.63
-318.47
-284.09
-317.13
-271.03
-305.18
-234.12
-214.4
-199.4
-245.08
-233.09
-185.43
-209.15
-156.6
-159.08
-161.55
-65.43
-71.67
-119.65
-33.16
-71.94
-29.91
-27.26
1549.59
7.48
-4.94
54.7
84.42
110.34
102.32
112.73
78.43
105.25
162.79
183.94
222.41
196.64
244.28
182.22
258.03
294.5
278.32
241.5
302.69
264.73
273.95
282.94
292.37
333.34
391.08
406.4
393.74
375.54
384.1
419.5
378.67
439.14
402.96
413.11
485.5
404.36
456.99
506.66
472.92
438.96
477.68
493.47
518.17
498.74
468.57
444.45
474.03
491.24
469.09
471.62
531.79
530.35
449.27
533.88
452.84
459.76
507.15
536.41
532.62
482.17
491.92
463.67
446.89
465.29
483.23
410.81
461.65
446.1
425.9
413.81
427.87
370.4
435.6
418.63
325.63
348.78
336.99
308.12
297.42
335.44
326.7
346.17
326.76
230.36
284.79
231.78
208.77
239.04
202.67
210.59
144.71
156.84
157.1
116.37
105.97
61.15
66.64
42.61
19.2
45.28
-9.64
67.13
-37.58
-21.38
-48.65
-6.77
-94.36
-109.41
-42.52
-57.86
-79.63
-121.79
-160.3
-111.94
-149.75
-206.19
-235.39
-256.07
-202.88
-242.45
-269.77
-313.65
-321.83
-273.66
-341.94
-340.29
-373.12
-309.24
-340.82
-333.42
-378.84
-431.71
-408.1
-409.48
-374.69
-459.44
-469.7
-405.51
-473.2
-423.26
-452.04
-421.28
-479.01
-461.37
-505.1
-475.89
-534.08
-445.69
-478.67
-460.46
-516.04
-459.9
-514.02
-450.32
-502.15
-514.9
-458.02
-503.98
-531.12
-524.75
-513.13
-457.23
-535.37
-482.46
-463.68
1006.09
-501.21
-496.5
-421.43
-413.76
-403.81
-393.68
-450.45
-382.58
-404.4
-395.46
-408.33
-378.37
-413.03
-374.64
-317.92
-341.58
-315.75
-337.57
-270.7
-285.3
-298.45
-247.41
-218.92
-268.85
-213.48
-238.27
-202.05
-163.14
-198.12
-202.62
-192.56
-117.1
-124.09
-70.4
-55.66
-103.18
-67.78
-37.84
-49.44
-34.77
-42.23
-19.43
34.62
68.53
103.8
32.54
112.16
65.46
152.7
89.71
179.92
168.12
211.67
161.87
203.09
214.16
216.98
273.19
264.18
268.95
245.47
289.26
330.37
361.14
282.42
292.29
326.84
399.41
383.18
334.46
390.3
378.17
363.11
377.11
385.15
384.03
478.52
456.28
441.57
439.06
486.26
452.38
491.4
433.78
487.85
519.72
470.79
482.55
474.08
492.72
503.58
511.23
529.11
488.71
460.83
488.37
545.48
535.86
502.63
537.58
466.94
455.42
473.5
483.88
464.46
442.67
465.5
461.77
428.92
486.76
435.03
421.68
429.98
361.72
354.85
421.16
392.29
413.32
335.34
338.01
384.75
324.6
289.36
266.61
267.16
263.54
308.47
261.17
244.15
200.06
256.93
155.92
170.87
198.07
153.86
145.91
115.92
150.64
84.89
94.45
52.06
97.69
5.58
43.42
-12.07
-34.62
-24.65
-32.74
-65.34
-82.72
-127.08
-81.37
-106.6
-134.58
-148.79
-117.1
-129.84
-172.9
-181.19
-176.34
-228.44
-266.35
-222.78
-242.49
-229.13
-314.11
1242.42
-288.83
-304.02
-352.87
-305.17
-324.92
-390.28
-410.99
-350.45
-362.27
-381.71
-455.69
-375.13
-457.82
-393.64
-478.49
-456.3
-467.57
-509.02
-509.33
-473.89
-511.59
-481.78
-453.01
-521.35
-515.91
-511.15
-491
-536.31
-534.41
-489.47
-548.87
-543.15
-515.21
-526.22
-486.71
-467.56
-522.16
-477.9
-491.99
-463.3
-513.03
-445.49
-498.37
-456.52
-434.61
-469.31
-462.68
-469.72
-461.25
-450.11
-441.59
-439.97
-387.34
-400.31
-383.18
-341.4
-344.03
-316.1
-311.42
-282.83
-324.26
-258.99
-290.35
-255.7
-294.46
-232.21
-250.01
-257.79
-186.38
-222.87
-161.04
-129.95
-132.18
-151.78
-119.5
-127.9
-129.64
-100.53
-83.18
-61.69
-16.13
-3.27
11.92
-7.99
82.39
72.15
88.32
46.72
141.93
111.09
98.26
173.81
195.65
189.82
195.17
239.13
234.81
188.81
270.82
234.74
280.76
250.33
253.96
312.86
319.27
337.91
378.24
342.68
396.25
386.24
402.85
433.5
379.86
408.45
390.75
438.66
415.9
433.47
426.58
478.13
483.76
501.3
487.92
519.83
505.66
530.92
494.38
500.99
512.19
484.03
484.58
539.72
455.84
473.31
482.16
479.59
538.19
528.26
458.17
496.03
498.75
450.01
444.05
493.04
508.01
476.77
485.77
431.51
409.04
443.93
405.67
398.95
465.65
431.86
446.34
388.43
376.82
355.15
352.31
363.71
327.89
355.27
327.74
318.15
320.91
1780.43
300.42
261.54
277.46
239.45
252.21
190.4
191.22
155.03
187.93
178.82
154.36
147.64
97.14
55.03
69.72
106.9
49.38
8.53
66.1
-34.23
-7.95
-26.26
-48.12
-88.86
-99.12
-103.19
-96.12
-95.79
-136.07
-150.27
-109.49
-158.23
-151.44
-184.27
-161.97
-258.93
-191.45
-274.76
-257.5
-286.19
-252.55
-256.57
-279
-324.5
-346.63
-348.54
-375.54
-409.33
-342.35
-373.47
-371.7
-412.84
-461.01
-386.67
-457.59
-485.45
-397
-406.12
-443.6
-430.45
-485.44
-443.62
-506.58
-471.6
-478.4
-463.98
-530.59
-485.76
-455.94
-481.09
-482.19
-491
-472.99
-547.77
-490.92
-528.73
-541.48
-486.69
-535.58
-455.58
-474.65
-509.4
-485.89
-430.78
-451.08
-448.07
-482.88
-491.18
-408.65
-388.2
-469.37
-413.4
-452.94
-413.3
-430.86
-361.78
-416.88
-353.74
-388.98
-319.94
-295.12
-361.86
-319.52
-258.69
-269.58
-255.17
-302.91
-269.47
-250.68
-220.81
-251.24
-184.75
-134.23
-203
-148.6
-103.79
-126
-102.56
-65.97
-84.21
-98.33
-26.84
-52.13
-6.06
-9.71
55.01
58.66
1.13
13.97
81.92
112.79
115.6
166.67
99.82
112.01
118.65
205.05
203.59
214.06
178.98
261.8
199.13
231.39
238.88
263.03
296.9
291.05
344.66
355.86
298.4
357.6
358.25
391.66
433.26
398.74
421.41
416.71
453.59
423.48
406.07
449.61
404.77
452.45
485.77
453.05
466.08
1948.78
457.65
462.36
492.47
488.7
463.96
497.32
507.25
504.66
507.18
452.2
464.16
532.06
461.88
451.04
499.21
518.65
505.67
454.51
474.64
520.95
424.43
468.56
509.79
486.22
446.63
433.23
484.66
386.02
454.45
364.84
407.7
353.68
379.15
397.09
372.72
378.22
316.69
365.14
356.77
268.14
342.63
326.82
259.48
291.99
198.37
235.9
253.93
256.32
202.79
156.79
123.1
107.95
171.11
165.94
115.53
122.69
96.66
97.91
85.28
41.14
-13.09
49.3
-7.18
-12.42
2.95
-52.49
-55.99
-119.52
-110.24
-118.89
-122.12
-156.93
-175.38
-160.4
-238.4
-244.76
-200.1
-187.76
-225.24
-292.26
-231.73
-320.05
-340.26
-260.85
-329.55
-348.82
-323.18
-361.57
-339.77
-366.9
-418.4
-360.69
-363.16
-446.33
-407.79
-425.36
-428.73
-413.54
-405.74
-462.74
-508.02
-423.2
-469.56
-492.94
-530.31
-462.59
-467.96
-463.13
-447.46
-473.33
-481.47
-542.19
-465.41
-546.16
-493.78
-461.79
-497.52
-484.01
-452.37
-512.48
-500.47
-443.96
-499.55
-438.92
-506.97
-423.29
-439.92
-476.3
-471.56
-396.71
-474.91
-436.6
-445.29
-454.83
-431.79
-423.27
-345.42
-387.36
-342.14
-318.61
-343.19
-290.85
-332.49
-313.44
-299.72
-265.08
-310.01
-291.61
-290.24
-206.12
-233.39
-189.58
-179.7
-159.08
-147.72
-190.67
-168.41
-133.68
-154.04
-110.67
-41.62
-88.84
-9.9
-24.44
3.62
-21.33
1556.57
69.24
3.45
85.64
75.56
105
128.4
112.22
85.31
155.79
153.98
212.65
223.91
205.8
197.68
181.95
210.64
205.36
307.68
256.24
310.79
335.66
343.6
367.15
345.48
331.35
335.25
384.08
392.15
371.02
355.71
419.76
379.97
442.98
441.2
398.47
460.57
478.54
424.71
430.66
444.17
525.03
452.7
499.75
476.3
445.95
474.11
472.09
493.46
498.82
490.96
509.24
518.81
476.43
515.35
515.43
455.09
524.51
515.56
463.92
440.86
482.61
435.21
506.2
427.29
478.55
500.69
467.69
414.91
401.61
409.96
460.5
421.11
433.45
391.54
340.11
362.24
314.2
370.31
299.46
302.92
329.79
297.04
325.42
320.44
217.06
283.22
234.94
237.2
222.45
170.19
211.6
218.38
202.25
179.59
162.89
106.82
66.6
52.27
77.11
63.74
81.35
10.13
47.53
12.01
-67.36
-68.01
-98.19
-108.51
-129.86
-117.16
-62.5
-125.19
-174.67
-170.04
-200.8
-172.19
-160.62
-214.95
-252.44
-236.76
-230.02
-239.66
-252.61
-307.37
-265.82
-294.43
-299.63
-302.75
-322.13
-336.84
-408.84
-428.05
-343.44
-432.79
-449.34
-447.44
-462.37
-464.52
-397.3
-485.87
-482.74
-442.97
-456.23
-431.27
-509.63
-482.17
-435.56
-457.5
-443.64
-517.25
-453.09
-513.31
-500.44
-516.74
-468.31
-549.71
-476.69
-476.98
-545.51
-446.34
-516.78
-523.86
-529.08
-523.11
-447.48
1026.07
-448.74
-487.7
-475.08
-484.1
-446.22
-440.33
-428.1
-396.24
-466.62
-378.55
-404.37
-385.51
-411.32
-394.7
-357.74
-354.95
-324.73
-321.3
-302.85
-309.85
-314.5
-247.45
-277.18
-296.21
-228.15
-231.66
-200.45
-180.05
-164.02
-129.97
-137.1
-189.44
-145.76
-158.26
-139.85
-86.32
-87.33
-22.67
-22.44
-11.58
-43.34
33.72
68.48
80.08
37.85
63.76
49.85
87.76
133.37
147.18
158.3
159.18
206.45
145.35
156.08
241.42
195.64
277.46
223.42
223.06
272.75
254.62
315.51
315.36
362.57
345.13
350.87
405.76
366.37
405.66
408.89
347.6
436.46
462.62
392.02
467.25
405.34
462.02
402.62
423.43
499.89
422.39
462.18
514.95
453.46
470.97
468.49
494.34
455.63
487.61
525.43
518.67
540.65
527.18
529.96
483.45
534.75
457.89
460.32
471.47
519.78
534.58
441.17
477.44
427.54
512.94
445.61
445.46
424.89
417.78
447.93
377.49
403.07
431.87
380.66
415.26
419.09
395.18
384.35
308.85
353.99
321.72
360.53
325.14
306.7
283.4
292.32
255.77
200.74
265.26
263.95
214.36
232.33
189.25
119.23
188.82
120.81
140.36
115.58
113.19
27.73
67.21
21.17
7.66
58.2
-34.39
4.48
-54.66
-43.21
-80.03
-75.69
-125.49
-121.99
-165.33
-139.36
-175.41
-149.89
-175.9
-227.15
-187.19
-219.93
-218.15
-210.37
-277.91
-232.18
-307.78
1239.2
-275.1
-359.72
-310.59
-307.28
-316.51
-316.08
-386.62
-415.56
-383.09
-392.24
-447.39
-437.17
-388.23
-447.28
-426.87
-458.66
-478.61
-437.13
-517.59
-511.16
-508.18
-510.68
-442.41
-535.48
-449.45
-480.78
-484.62
-485.69
-531.06
-499.65
-482.22
-522.78
-476.66
-545.35
-466.26
-530.89
-446.3
-481.58
-523.29
-455
-453.3
-503.66
-477.47
-427.42
-435.31
-432.37
-417.06
-454.38
-390.71
-449.19
-373.68
-398.17
-423.88
-396.92
-352.47
-392.71
-304.79
-386.76
-354.72
-318.63
-258.08
-288.84
-308.86
-232.81
-215.73
-242.23
-260.09
-202.03
-209.79
-148.09
-220
-212.76
-185.62
-183.56
-120.77
-137.56
-63
-88.54
-98.8
-75.48
10.08
20.51
-12.95
-6.12
4.08
27.09
75.37
119.68
99.55
58.96
138.33
116.57
195.76
196.47
208.94
230.36
247.03
174.28
276.12
198.41
289.88
252.6
278.61
269.23
265.7
275.75
291.3
370.21
330.02
407.9
413.63
418.3
410.05
379.49
378.16
447.36
472.72
428.25
459.72
482.37
465.57
413.75
432.39
497.75
516.12
497.46
460.48
513.31
447.64
486.67
449.88
535.46
537.52
475.34
511.93
480.25
517.88
463.78
539.96
458.52
489.88
488.45
480.06
509.06
494.05
459.1
457.15
438.92
487.3
437.33
446.29
479.7
425.63
464.43
392.75
410.93
348.16
410.19
409.48
360.72
365.26
300.33
311.93
357.62
314.57
292.33
1760.05
257.18
305.17
243.32
280.33
202.96
252.17
210.5
215.8
158.62
152.38
165.54
122.64
57.96
49.58
58.91
80.51
80.27
49.06
66.13
49.1
-37.46
9.71
-73.29
-11.68
-121.09
-47.68
-88.58
-140.42
-84.35
-106.48
-127.65
-148.67
-149.8
-174.94
-249.22
-227.26
-249.68
-271.51
-230.47
-238.78
-256.11
-334.47
-319.06
-338.73
-335
-327.31
-365.45
-396.06
-408.74
-432.86
-399.76
-362.68
-456.01
-443.92
-388.56
-415.62
-456.2
-432.79
-498.14
-507.81
-501.65
-506.95
-495.02
-519.33
-480.02
-510.6
-525.24
-478.13
-546.81
-461.93
-539.25
-545.8
-530.37
-544.53
-457.69
-503.12
-522.36
-456.5
-475.61
-522.47
-510.16
-522.32
-442.17
-436.33
-443.3
-430.53
-496
-424.01
-401.38
-464.8
-414.28
-420.02
-417.51
-414.69
-401.78
-373.1
-335.43
-370.81
-359.7
-322.92
-306.72
-307.11
-346.77
-248.59
-271.94
-268.2
-258.75
-214.69
-175.34
-211.63
-242.42
-167.7
-173.24
-154.05
-126.81
-107.81
-91.03
-70.9
-51.72
-55.94
-28.18
-17.66
-54.81
-32.18
17.86
59.87
52.63
84.89
44.66
130.38
108.74
160.76
81.29
164.56
158.33
130.07
212.6
165.13
176.91
227.57
198.22
256.77
217.42
321.51
254.03
260.43
311.9
335.74
353.51
356.26
372.01
384.02
374.04
415.63
441.51
376.24
390.27
426.82
476.87
394.27
421.19
404.68
505.81
425.7
433.04
1974.4
527.18
437.49
456.76
539.47
490.78
528.1
514.07
471.41
543.23
514.95
530.04
477.06
471.73
454.17
543.35
513.64
496.1
441.4
500.39
445.21
458.92
430.73
461.31
457.92
481.13
423.18
413.9
427.31
423.61
394.85
386.99
431.81
427.24
375.7
358.56
405.31
376.68
339.46
298.02
314.16
310.37
287.64
245.01
215.47
226.02
192.64
234.64
230.47
159.48
215.15
184.04
132.03
113.54
151.87
117.6
117.8
36.53
109.58
54.45
-3.49
-12.71
-39.89
23.56
-4.16
-8.54
-55.29
-91.22
-130.96
-53.76
-99.2
-114.8
-110.26
-121.76
-160.59
-160.84
-149.01
-163.79
-204.83
-265.03
-226.41
-295.86
-231.67
-282.06
-313.91
-264.68
-279.66
-288.8
-389.7
-343.76
-362.4
-380.2
-364.67
-373.79
-406.41
-370.9
-386.78
-429.19
-455.12
-462.83
-442.84
-476.2
-509.07
-484.54
-428.93
-442.35
-436.55
-446.48
-459.88
-485.58
-529.33
-460.49
-469.12
-511.89
-496.98
-501.23
-514.72
-472.23
-487.34
-465.54
-531.71
-499.65
-467.5
-514.42
-456.02
-485.1
-518.82
-418.52
-436.84
-473.49
-451.31
-478.86
-430.68
-427.91
-431.37
-377.18
-445.36
-385.49
-353.23
-378.23
-357.97
-323.44
-332.83
-286.86
-344.96
-269.08
-285.68
-239.36
-284.26
-241.03
-234.95
-224.12
-246.77
-164.08
-149.93
-173.79
-165.2
-162.28
-175.19
-73.06
-93.05
-57.34
-119.98
-39.81
-41.85
-7.46
-40.08
1547.28
12.13
17.59
86.64
40.48
108.99
134.03
158.57
96.4
120.02
128.39
156.65
226.22
152.46
205.34
175.63
268.67
225.17
214.62
325.09
250.81
341.71
265.7
316.16
306.42
296.05
307.67
401.39
396.73
415.12
432.39
421.5
404.96
386.67
466.7
419.15
484.27
442.77
408.51
461.68
461.15
518.51
472.17
520.6
500.25
458.64
501.35
480.08
530.86
489.98
521.08
495.54
455.18
494.85
461.45
497.07
521.61
524.96
524.53
521.84
510.35
489.17
517.86
482.77
498.69
430.63
437.17
418.05
417.19
407.41
394.12
374.82
395.63
400.5
366.16
411.93
376.27
350.77
361.31
291.61
299.79
295
347.79
327.51
266.54
273.33
219.91
271.44
221.35
188.1
221.15
157.9
129.86
193.4
98.77
131.15
117.67
84.22
41.14
58.82
43.48
12.86
-5.52
25.1
-9.21
-17.64
-33.9
-41.94
-71.63
-60.5
-89.37
-151.01
-135.45
-151.49
-171.5
-148.04
-223.31
-164.16
-160.06
-242.01
-245.45
-210.55
-295.77
-296.29
-320.7
-290.14
-346.41
-272.3
-306.13
-381.84
-402.48
-363.32
-391.91
-411.58
-376.24
-393.14
-394.23
-395.5
-460.8
-429.33
-484.16
-497.74
-460.74
-440.74
-454.88
-500.67
-464.99
-442.8
-460.99
-523.91
-481.42
-451.02
-466.97
-508.49
-548.04
-478.31
-537.56
-522.51
-524.64
-538.53
-459.61
-474.97
-478.37
-522.45
-449.47
-500.86
-509.82
1066.84
-485.01
-430.52
-479.64
-415.78
-457.7
-434.2
-416.45
-445.36
-430.22
-370.42
-404.09
-399.32
-403.27
-350.86
-320.47
-334.89
-315.14
-279.05
-281.69
-345.34
-245.36
-285.2
-283.92
-216.46
-274.13
-177.03
-229.72
-195.83
-152.18
-128.11
-189.28
-182.02
-73.29
-98.5
-133.11
-75.54
-79.02
-1.65
-52.01
8.66
-47.29
48.29
-12.32
75.77
44.43
68.32
129.62
121.84
166.92
178.14
141.98
122.09
206.04
154.45
190.02
215.59
257.42
268.59
295.68
221.11
301.11
316.24
315.08
347.92
364.16
346.85
358.94
377.2
329.97
386.07
424.14
431.11
416.96
431.98
472.05
475.47
426.96
485.69
441.86
459.96
482.09
487.73
466.3
434.41
471.95
483.61
445.5
468.38
463.84
526.68
476.42
507.82
462.79
546.61
480.79
464.42
538.73
471.79
486.54
467.24
522.17
472.67
476.6
520.82
493.22
483.45
455.95
429.56
400.21
471.32
439.14
374
457.97
428.66
394.21
410.14
349.94
394.94
391.79
338.78
380.32
275.36
354.67
317.06
310.94
249.41
267.05
208.57
222.33
257.26
247.89
196.48
129.91
163.38
139.67
150.54
162.15
61.97
109.69
107.29
102.8
37.42
-12.76
45.71
-23.11
-16.27
0.39
-57.84
-23.53
-83.48
-81.79
-127.01
-129.39
-84.09
-162.14
-200.29
-154.07
-173.54
-241.26
-204.53
-225.57
-225.36
-241.77
-261.42
-298.9
1230.06
-257.46
-361.79
-350.88
-386.72
-340.04
-326.14
-336.07
-395.65
-429.86
-360.66
-381.55
-369.89
-464.6
-422.08
-462.03
-459.63
-406.98
-456.06
-423.99
-438.95
-503.14
-444.6
-454.12
-480.15
-484.66
-526.76
-453.61
-459.01
-518.04
-507.16
-519.38
-503.99
-529.4
-540.78
-488.5
-489.88
-444.31
-492.89
-486.32
-522.65
-521.49
-495.69
-476.8
-485.22
-454.65
-403.12
-407.68
-439.29
-418.09
-457.47
-419.24
-390.27
-414.39
-396.66
-393.61
-408.93
-374.89
-371.82
-359.43
-346.29
-341.49
-298.23
-278.95
-261.88
-260.19
-256.87
-284.47
-199.05
-169.08
-164.63
-175.99
-156.66
-177.44
-130.79
-84.75
-92.66
-84.45
-64.63
-64.46
-48.62
-74.86
-34.3
11.88
43.13
39.59
45.49
30.06
76.35
131.56
84.01
84.44
92.07
166.92
165.16
204.38
220.73
199.1
244.25
249.48
242.97
229.05
278.39
235.28
311.61
303.26
293.11
297.34
317.56
340.22
385.39
377.9
382.66
418.94
387.48
398.56
369
444.3
411.42
446.75
422.02
470.65
458.34
482.8
453.4
437.93
529.31
462.25
475.81
446.6
527.11
516.97
495.74
480.45
545.74
458.36
489.36
520.56
466.44
537.04
528.47
459.66
441.99
443.75
515.17
518.45
443.86
478.18
443.76
453.55
486.13
406.64
474.44
435.29
408.76
420.46
392.01
434.64
364.71
330.02
415.13
406.64
389.55
314.45
303.83
267.39
345.76
1781.7
267.52
239.39
212.76
284.66
193.96
206.86
229.36
156.52
169.42
141.29
118.15
123.22
117.4
58.72
40.24
59.2
11
48.35
38.39
13.94
-12.08
-0.18
-14.31
-63.79
-81.6
-102.59
-139.38
-159.9
-136.15
-97.39
-143.38
-121.67
-209.23
-184.32
-189.65
-232.08
-251.92
-288.14
-244.18
-303.03
-286.66
-258.1
-295.19
-339.79
-371.49
-377.84
-347.13
-388.32
-384.38
-348.66
-416.32
-406.65
-395.09
-450.51
-403.95
-396.59
-466.71
-429.02
-468.16
-422.46
-435.06
-447.45
-435.69
-492.88
-501.22
-449.07
-479.05
-509.76
-545.16
-539.12
-492.88
-475.04
-459.24
-485.64
-544.66
-521.25
-469.22
-483.2
-512.7
-488
-504.11
-523.97
-464.25
-472.63
-463.6
-497.08
-428.37
-460.56
-445.34
-435.37
-383.06
-455.69
-372.28
-350.25
-385.86
-409.51
-337.61
-347.72
-329.89
-373.51
-372.24
-332.25
-342.44
-252.84
-247.2
-227.46
-259.21
-241.04
-254.88
-190.53
-248.14
-201.54
-127.36
-158.79
-142.22
-147.01
-87
-58.95
-89.74
-93.56
-7.1
-27.2
-34.09
-19.19
39.37
-12.57
75.76
42.84
105.39
32.74
125.44
74.28
80.12
131.26
124.57
122.61
214.77
173.3
253.11
173.38
232.86
267.98
277.54
323.19
301.48
258.44
274.87
307.41
376.79
395.87
400.2
375.07
426.9
421.75
398.25
359.16
439.51
399.95
426.83
463
438.42
463.23
479.61
477.46
496.9
514.83
1942.93
434.23
456.22
458.33
529.96
481.55
541.55
450.58
450.64
505.41
513.46
547.48
513.65
514.89
500.19
480.36
506.46
463.57
442.81
435.99
498.78
500.72
426.8
454.88
439.43
449.41
406.39
466.13
472.14
453.08
449.43
360.33
411.86
370.22
409.34
326.45
375.09
344.6
323.43
292.14
301.35
292.66
304.81
262.29
237.78
237.64
255.83
198.82
180.54
150.76
219.4
155.32
167.9
113.27
76.44
70.69
86.99
37.92
40.91
19.44
10.1
17.33
-48.97
-48.75
-67.99
-91.35
-108.99
-49.57
-104.95
-70.48
-136.38
-163.5
-170.08
-192.42
-166.68
-228.72
-185.81
-216.88
-227.14
-228.57
-304.37
-301.74
-309.66
-285.99
-296.69
-319.63
-370.9
-330.11
-313.7
-330.35
-337.64
-403.37
-438.56
-429.32
-445.14
-444.14
-448.76
-472.29
-425.84
-477.22
-416.9
-423.93
-445.04
-467.34
-445.42
-509.55
-501.02
-487.96
-532.58
-518.2
-453.06
-529.58
-508.31
-508
-461.28
-483.86
-524.9
-472.97
-534.89
-526.52
-469.57
-473.51
-493.72
-509.02
-475.22
-435.88
-477.46
-508.43
-446.74
-416.42
-468.77
-437.8
-388.59
-458.38
-442.75
-355.53
-370.78
-375.93
-417.87
-382.19
-307.51
-353.66
-283.19
-360.98
-292.38
-262.54
-250.18
-239.18
-277.54
-257.92
-231.11
-203.68
-170.2
-211.01
-154.94
-171
-174.17
-107.43
-121.91
-107.2
-137.21
-28.39
-91.21
1.78
-43.05
10.47
1504.74
40.5
17.89
33.66
20.23
51.62
75.99
64.43
101.39
161.14
184.01
159.6
181.75
198.88
155.2
207.72
223.44
245.41
218.96
316.2
330.44
290
263.15
290.52
349.67
362.83
355.55
400.31
385.37
358.3
360.36
442.99
387.31
389.98
417.82
410.3
457.27
422.85
434.29
443.3
500.47
489.61
446.69
440.45
510.23
492.12
527.74
470.48
519.69
526.3
466.76
452.1
532.67
453.57
485.36
547.22
497.87
482.79
498.26
497.68
484.97
457.25
435.05
483.09
436.07
453.1
460.67
428.62
473.83
388.68
441.46
462.23
454.13
373.64
348.67
352.19
341.38
367.07
325.17
362.1
289.79
297.15
352.87
306.01
285.48
230.2
231.29
221.41
187.25
174.45
196.17
146.85
142.6
169.43
134.68
162.17
100.01
94.27
49.5
41.8
18.82
57.99
77.23
26.82
-42.98
26.57
-4.37
-41.37
-77.37
-46.05
-59.38
-128.46
-146.55
-84.85
-166.4
-185.65
-198.33
-222.3
-228.51
-251.53
-264.28
-233.05
-277.3
-234.09
-245.93
-262.8
-320.98
-289.47
-369.39
-350.13
-316.52
-318.51
-371.39
-388.25
-402.81
-387.77
-392.34
-447.59
-426.41
-466
-418.79
-427.5
-437.52
-450.22
-420.47
-514.42
-448.48
-477.83
-455.92
-448.87
-526.42
-481.45
-454.54
-472.08
-463.6
-500.2
-546.16
-519.58
-477.01
-466.21
-538.19
-526.7
-512.9
-535.37
-443.26
-498.88
-496.15
1018.9
-431.91
-460.84
-482.58
-462.45
-421.85
-468.13
-453.52
-470.16
-378
-429.33
-379.76
-429.22
-398.72
-367.6
-332.99
-329.15
-375.45
-298.72
-278.06
-277.45
-254.39
-286.17
-291.24
-296.04
-218.4
-187.19
-259.32
-201.99
-218.32
-151.21
-198.94
-115.83
-121.01
-73.33
-120.79
-47.41
-82.91
-33.77
14.5
-39.75
-54.51
-0.68
57.2
54.47
24.25
102
66.27
67.86
132.14
115.29
174.31
205.68
154.46
232.32
196.12
188.48
205.81
212.28
289.51
297.55
320.02
297.17
283.92
353.09
375.03
346.7
317.79
363.83
392.16
345.77
401.03
442.27
375.65
419.99
414.33
393.1
428.25
496.28
404.52
410.22
450.46
516.29
450.4
512.43
471.39
487.11
539.83
466.11
468.61
486.36
518.99
487.99
490.41
450.11
520.41
469.92
481.92
540.98
502.85
521.43
529.54
483.75
444.85
472
423.68
459.53
455.44
456.26
427.97
435.67
451.01
411.69
429.1
425.66
408.09
341.6
354.96
334.88
362.41
353
297.12
277.86
265.73
323.43
296.65
241.88
309.58
283.66
235.7
272.82
216.08
188.34
227.99
211.6
137.58
182.35
145.12
74.04
61.93
124.81
60.42
66.14
-1.31
30.09
-37.28
-22.36
19.01
-17.13
-23.37
-35.56
-42.24
-120.77
-78.24
-138.07
-93.44
-194.15
-150.78
-228.39
-211.13
-178.68
-267
-273.29
-204.01
-303.39
-264.07
-295.96
1205.29
-277.94
-304.61
-322
-334.2
-361.54
-322.57
-356.76
-394.16
-370.79
-398.79
-404.72
-397.19
-445.05
-433.29
-420.51
-464.02
-464.98
-503.17
-437.46
-476.75
-523.18
-457.43
-461.56
-474.38
-461.92
-492.05
-521.84
-511.88
-540.89
-464.97
-543.96
-471.39
-495.03
-496.34
-510.25
-510.3
-493.63
-503.67
-477.1
-507.44
-426.09
-499.04
-451.35
-460.48
-435.87
-423.07
-439.19
-408.05
-463.75
-426.1
-452.07
-391.36
-354.32
-353.12
-350.51
-327.87
-388.32
-313.79
-277.4
-324.42
-349.79
-336.91
-282.92
-309.82
-284.94
-241.27
-210.33
-238.05
-197.9
-182.84
-192.46
-116.31
-102.32
-171.6
-158.94
-114.67
-112.15
-85.01
-14.09
-75.41
-4.12
33.22
9.93
-10.77
69.48
89.85
71.87
59.69
84.26
70.78
108.44
167.67
150.34
213.81
181.18
146.54
238.98
204.86
245.19
293.21
254.67
293.2
296.37
296.34
269.29
362.87
300.6
380.92
340.03
353.62
427.1
359.16
396.3
440.94
396.54
390.98
463.43
403.7
489.8
485.4
477.22
512.09
482.81
454.66
466.96
511.78
445.55
494.75
512.73
464.29
501.57
522.34
518.99
507.91
538.82
530.39
540.93
494.9
532.47
450.06
443.27
444.86
498.79
442.06
429.4
491.67
478.92
429.53
486.4
460.83
456.27
454.23
459.2
417.4
385.22
356.12
431.01
340.46
407.73
389.45
324.58
343.41
365.18
339.36
312.53
1813.49
306.65
265.19
212.13
243.57
238.94
220.29
246.42
225.14
206.32
163.51
107.42
159.04
75.07
102.4
74.72
49.21
43.09
23.8
25.12
29.98
-52.51
-64.56
-56.43
-6.53
-13.91
-118.9
-83.39
-141.67
-145.32
-110.13
-138.04
-175.79
-206.75
-178.49
-198.08
-172.4
-216.62
-235.32
-238.21
-228.31
-253.61
-272.66
-277.81
-351.76
-361.91
-335.05
-345.97
-412.33
-411.38
-395.91
-407.75
-367.62
-418.83
-467.57
-476.97
-437
-467.49
-446.5
-482.44
-481.29
-512.13
-438.34
-470.54
-526.69
-482.22
-439.83
-463.55
-522.53
-511.72
-521.51
-530.94
-457.61
-508.89
-490.39
-471.41
-452.82
-452.29
-500
-472.99
-441.81
-533.21
-474.08
-488.68
-460.05
-498.06
-467.99
-493
-487.23
-450.75
-424.4
-435.11
-449.54
-374.68
-366.22
-373.04
-388.7
-349.4
-334.33
-382.29
-356.17
-337.83
-320.02
-292.26
-329.25
-309.68
-269.55
-209.28
-257.07
-248.8
-250.68
-190.4
-178.31
-196.16
-201.21
-133.09
-155.15
-120.55
-105.24
-75.98
-62.38
-38.51
-32.49
7.4
-4.1
-24.26
16.02
-4.36
25.59
105.25
120.53
70.73
91.11
111.06
146.94
152.1
120.78
127.23
230.54
178.31
189.67
194.18
232
222.43
291.99
297.93
310.98
268.83
348.26
303.56
295.9
397.81
326.46
360.51
338.17
438.85
391.04
398.26
398.66
438.23
434.15
482.95
491.43
413.89
504.64
465.94
503.96
2021.71
441.52
495.9
445.81
460.23
465.87
544.6
461.51
457.51
486.91
532.49
521.61
545.19
517.17
470.02
526.21
465
441.51
463.08
458.03
436.62
455.17
466.16
511.4
449.1
420.31
418.86
452.55
428.41
389.38
379.25
371.59
394.21
379.72
373.87
365.36
352.76
331.36
354.16
332.47
314.6
250.59
238.17
247.01
218.88
267.12
209.76
209.72
254.53
203.37
158.35
210.12
154.07
123.37
98.48
114.76
72
67.39
95.82
7.31
-15.48
60.79
-43.05
31.02
-40.49
0.48
-62.45
-121.27
-112.12
-104.63
-164.71
-107.6
-116.14
-205.22
-222.72
-192.21
-230.69
-233.54
-188.03
-288.44
-245.46
-273.79
-244.5
-289.74
-313.19
-325.36
-376.64
-311.55
-386.74
-359.53
-353.49
-354.44
-406.11
-367.94
-372.01
-462.49
-408.62
-437.72
-489.87
-439.85
-412.63
-469.61
-449.74
-490.22
-506.98
-468.1
-443.67
-509.87
-497.18
-492.53
-466.21
-450.18
-547.55
-451.71
-514.54
-506.25
-451.97
-484.03
-538.69
-499.42
-492.67
-475.77
-465.99
-484.85
-479.6
-435.41
-479.34
-420.64
-453.77
-458.01
-450.46
-401.27
-393.96
-420.15
-374.56
-401.9
-391.84
-423.47
-382.68
-357.82
-319.62
-337.64
-305.5
-308.51
-302.67
-275.35
-254.23
-307.82
-251.11
-243.07
-251.83
-227.29
-190.43
-206.31
-211.11
-204.49
-174.83
-122.49
-124.49
-89.41
-55.4
-64
-100.61
-69.84
-42.71
-63.56
-12.56
1550.17
27.55
56.23
32.47
62.26
70.81
79.6
154.02
149.9
106.83
113.77
136.99
146.15
157.53
214.88
180.23
268.6
288.16
272.41
319.63
316.92
337.45
305.4
289.03
379.56
323.78
314.38
398.57
381.1
361.33
366.41
418.47
448.13
415.26
430.5
484.43
452.43
491.57
449.59
449.23
482.59
478.05
491.29
501.21
472.93
499.47
519.02
504.69
470.99
481.88
528.94
506.85
460.75
534.58
524.92
509.6
475.09
507.55
524.47
453.29
454.93
473.83
489.23
488.9
489.76
497.91
432.44
459.88
454.34
419.82
440.99
370.4
358.2
375.85
397.2
391.05
344.94
355.7
333.36
352.86
293.8
322.05
300.24
325.72
234.86
264.57
298.06
230.97
273.76
211.21
148.62
221.99
179.8
175.06
103.09
129.61
153.34
112.67
109.01
59.26
16.97
32.55
68.91
-6.08
35.42
-66.27
-1.9
-7.99
-113.17
-101
-124.35
-140.66
-158.42
-125.61
-144.3
-181.27
-176.45
-179.48
-238.8
-211.48
-257.13
-210.78
-250.18
-246.13
-323.18
-289.5
-327.46
-286.57
-330.17
-325.69
-366.61
-361.72
-402.69
-348.63
-358.53
-408.46
-404.9
-389.97
-480.95
-439.76
-451.04
-497.4
-423.33
-479.51
-446.52
-439.69
-508.25
-474.22
-453.31
-493.18
-445.58
-464.73
-470.16
-541.38
-460.17
-496.34
-480.88
-492.29
-513.44
-499.83
-516.71
-492.59
-498.36
-516.83
-526.4
-431.73
1055.57
-440.06
-493.37
-466.37
-457.68
-458.58
-420.55
-478.63
-421.23
-425.07
-397.31
-445.56
-382.51
-424.75
-377.16
-358.47
-306.69
-348.99
-337.72
-364.47
-321.67
-265.7
-249.69
-219.59
-263.89
-263
-190.98
-229.22
-197.74
-234.79
-136.28
-133.53
-181.8
-172.89
-67.28
-62.31
-44.66
-38.96
-97.89
2.73
-4.14
-59.68
-32.63
63.3
21.84
7.67
51.74
85.1
105.75
123.66
119.71
124.41
152.04
214.89
150.64
196.15
249.33
237.5
196.75
231.58
294.45
281.86
320.27
303.3
269.86
348.12
379.21
300.48
389
361.56
415.15
362.12
405.98
450.55
390.58
451.96
462.1
396.62
396.9
459.57
490.95
488.03
472.28
484.04
448.94
490.52
464.53
516.89
466.11
461.09
475.7
448.45
477.59
480.02
501.91
530.54
512.22
533.43
463.23
472.43
449.25
456.46
465.88
457.23
449.06
509.28
426.08
418.38
428.78
431.22
457.39
436.49
384.27
409.38
450.45
441.33
379.38
367.17
360.79
358.81
354.98
312.95
307.36
336.18
272.1
258.84
241.23
268.17
300.02
291.4
195.01
212.08
152.96
143.11
160.51
145.08
135.05
142.85
143.11
87.07
39.07
78.81
75.3
36.85
-2.21
-9.65
-47.88
-60.07
-65.72
-9.95
-26.16
-70.46
-130.97
-68.05
-125.69
-164.73
-125.65
-121.85
-229.34
-161.42
-191.83
-268.38
-197.36
-219.34
-275.97
-243.72
-263.37
1220.87
-261.02
-330.23
-364.99
-337.1
-389.03
-379.89
-416.65
-431.95
-407.05
-400.95
-429.39
-461.4
-380.54
-468.42
-458.09
-448.36
-476.54
-467.45
-434.48
-465.15
-447.12
-464.5
-471.43
-460.12
-504.06
-508.83
-537.59
-498.94
-527.58
-488.05
-544.02
-512.5
-502.81
-509.06
-471.64
-479.16
-531.67
-497.29
-531.69
-464.28
-462.55
-466.39
-429.71
-509.82
-451.45
-435.66
-470.08
-404.41
-444.82
-420.4
-432.88
-406.74
-381.59
-420.56
-405.48
-343.13
-389.78
-297.03
-333.71
-290.47
-285.9
-263.57
-255.81
-289.52
-303.73
-292.78
-190.62
-194.03
-183.67
-174.25
-214.93
-193.78
-181.6
-106.69
-149.76
-71.41
-132.41
-109.66
-28.73
-12.74
-65.4
31.96
34.43
63.05
13.65
15.59
93.39
46.44
67.78
62.35
74.14
102.3
127.6
183.63
162.86
148
165.62
227.31
276.55
199.5
214.45
252.91
320.67
345.3
349.84
279.4
306.21
388.05
319.2
373.38
392.91
390.19
407.89
426.71
410.71
444.73
458.63
414.54
401.23
448.22
482.81
426.13
452.11
455.19
433.6
531.05
505.26
484.47
500.72
491.87
469.17
531.64
466.84
537.44
464.37
531.49
462.8
487.33
462.38
445.09
454.58
538.9
479.37
480.93
525.85
508.86
465.93
463.62
438.9
445.01
434.24
397.01
475.01
398.72
387.39
370.85
370.89
425.69
382.98
343.84
361.93
340.62
349.73
340.55
321.3
257.05
1749.05
286.53
232.13
203.57
227.91
245.4
171.8
209.63
154.08
186.76
171.43
130.42
157.63
63.31
52.73
86.19
60.89
23.29
17.4
-13.08
15.28
-51
14.47
5.82
-100.95
-108.58
-86.28
-54.85
-128.82
-96.24
-132.25
-187.02
-198.51
-158.05
-171.97
-181.55
-214.36
-271.57
-272.86
-312.89
-331.4
-309.62
-297.91
-289.84
-327.25
-324.26
-378.02
-330.68
-384.23
-333.89
-358.43
-413.19
-372.49
-423.9
-472.54
-409.17
-455.61
-456.83
-449
-495.24
-440.88
-444.44
-455.61
-487.58
-461.05
-457.09
-443.53
-468.81
-540.29
-453.44
-514.96
-488.37
-473.97
-501.43
-525.5
-452.79
-491.31
-466.35
-498.62
-440.08
-495.05
-521.35
-460.14
-459.68
-460.37
-426.02
-444.34
-487.28
-413.97
-440.9
-414.54
-400.93
-420.98
-450.46
-361.22
-347.66
-417.14
-394.41
-322.25
-395.61
-304.66
-343.54
-296.98
-285.73
-312.93
-283.4
-310.58
-254.25
-263.91
-195.61
-202.82
-171.27
-161.95
-180.37
-143.44
-125.98
-82.06
-89.9
-118.63
-105.15
-64.81
-12.76
-75.16
-47.22
-53.54
38.39
2.23
9.58
15.6
113.52
72.74
113.21
67.09
173.82
163.68
185.81
207.36
216.86
195.18
208.12
255.21
266.2
290.69
248.43
239.38
323.73
325.36
279.27
337.39
297.1
303.91
372.14
402.57
427.04
401.46
425.85
416.91
393.01
424.35
389.52
459.57
411.89
424.67
466.03
422.82
517.13
1994.22
484.81
520.96
445.14
492.97
458.18
459.42
512.63
495.11
530.65
502.05
515.9
517.1
481.56
477.64
449.99
540.28
530.06
475.93
447.84
460.23
495.07
430
448.95
480.2
459.71
456.73
444.56
446.14
397.12
371.97
381.41
356.17
404.21
369.02
318.82
333.02
331.84
384.16
304.52
312.57
288.21
295.84
232.9
307.58
233.13
222.1
247.56
191.71
210.53
147.48
185.17
194.73
147.36
88.42
135.86
62.33
45.3
69.95
86.44
46.88
0.34
31.28
24.02
-47.36
-23.87
-92.84
-78.61
-66.99
-105.44
-121.61
-164.54
-147.29
-110.87
-167.9
-176.81
-194.84
-170.25
-223.97
-222.79
-219
-261.8
-326.69
-279.89
-294.72
-348.33
-336.46
-352.96
-353.15
-343.88
-335.07
-347.86
-427.87
-376.71
-419.39
-400.62
-434.22
-463.18
-398.8
-474.76
-420.22
-432.67
-489.01
-433.39
-439.69
-500.15
-436.43
-530.71
-445.72
-480.02
-527.92
-506.77
-500.04
-481.97
-490.55
-547.14
-515.68
-547.88
-485.73
-492.32
-471.85
-501.96
-480.62
-533.7
-464.73
-465.48
-439.13
-434.21
-463.44
-410.75
-475.22
-461.9
-404.81
-407.97
-372.28
-415.69
-422.98
-378.97
-351.39
-419.36
-343.3
-314.32
-339.65
-292.6
-277.46
-306.26
-275.06
-229.75
-308.41
-283.04
-191.66
-255.07
-257.55
-221.86
-219.66
-126.58
-117.15
-101.04
-129.64
-135.9
-92.63
-67.9
-32.32
-72.76
-70.48
-57.55
39.8
1492.97
-16.43
80.39
23.13
29.42
125.66
88.53
70.34
116.85
147.13
189.94
179.06
174.56
216.25
242.84
244.94
273.61
274.69
223.94
262.37
336.92
263.36
317.34
284.42
329.7
364.31
403.83
371.46
425.76
413.92
361.42
382.59
417.35
440.95
462.23
441.31
446.51
435.49
492.37
454.36
490.7
457.83
428.55
462.46
513.63
489.11
460.28
524.08
459.21
472.38
519.16
476.03
526.91
491.66
491.37
464.91
481.3
534.86
481.42
492.8
454.37
512.08
440.35
509.88
480.51
425.48
502.08
453.78
459.71
423.52
396.87
443.06
364.11
430.22
391.02
397.79
380.83
338.53
391.93
318.65
309.3
367.67
256.22
313.64
302.86
228.56
239.85
263.23
214.5
255.23
241.3
153.78
204.13
111.85
98.82
166.24
98.91
138.71
93.45
62.8
33.99
2.51
-17.32
6.81
-11.44
-41.24
-65.17
-32.47
-14.19
-50.88
-112.26
-152.9
-125.57
-153.28
-158.77
-194.02
-149.3
-150.82
-160.74
-251.92
-247.21
-230.7
-301.69
-281.78
-283.47
-318.61
-352.56
-305.49
-347.72
-303.26
-323.54
-326.91
-359.11
-417.44
-422.69
-426.52
-365.31
-465.38
-397.11
-403.28
-468.11
-435.15
-445.87
-506.48
-499.6
-510.49
-471.94
-524.43
-476.76
-519.97
-477.41
-462.17
-480.63
-500.36
-525.87
-490.94
-524.01
-471.02
-535.22
-457.94
-522.99
-526.91
-479.06
-529.81
-511.41
-437.69
-461.1
1067.82
-449.71
-475.68
-457.22
-424.29
-414.74
-430.77
-444.18
-440.91
-389.81
-425.59
-400.79
-371.62
-370.48
-384.48
-344.81
-301.94
-320.76
-352.3
-333.38
-280.57
-291
-301.28
-254.29
-286.6
-280.83
-238.11
-197.1
-207.77
-164.65
-171.58
-185.77
-90.85
-128.1
-72.09
-136.92
-122.72
-81.16
-60.82
-1.94
34.6
7.41
-21.82
25.18
28.78
24.46
120.34
43.68
120.49
141.59
130.98
104
136.79
221.42
237.7
207.92
226.16
201.28
239.46
296.05
226.43
235.65
289.28
301.99
352.52
336.85
310.72
373.39
328.96
338.77
399.24
386.6
358.96
438.84
452.18
472.43
436.35
432.99
403.17
502.18
428.56
427.22
520.92
509.63
513.56
517.46
494.05
494.2
511.67
527.5
518.98
449.84
521.14
515.21
546.58
544.49
476.51
462.13
460.02
446.43
469.91
488.03
446.84
518.07
451.43
473.35
457.76
412.86
479.65
448.63
438.6
440.62
430.21
425.69
447.76
371.15
360.53
369.35
349.99
330.62
334.54
350.61
330.33
306.43
308.18
236.26
242.69
283.15
264.74
262.36
260.06
235.38
156.47
223.84
150.71
163.25
95.57
86.03
77.78
94.2
45.01
54.86
6.02
21.85
26.01
8.88
-49.99
-32.98
-62.33
-21.07
-37.28
-106.59
-98.54
-114.7
-143.45
-97.31
-142.68
-187.71
-235.78
-218.56
-238.68
-190.79
-230.91
-219.73
-308.66
-329.18
1186.2
-308.55
-317.37
-324.29
-371.19
-370.83
-365.61
-335.02
-394.17
-383.9
-381.2
-382.99
-402.94
-463.15
-400.01
-407.77
-398.17
-431.77
-455.43
-465.54
-493.91
-493.91
-529.19
-450.59
-485.84
-486.66
-514.99
-462.33
-506.07
-450.82
-527.96
-489.55
-472.2
-482.45
-455.53
-478.98
-528.61
-464.28
-479
-489.7
-468.61
-428.62
-475.53
-490.75
-426.14
-449.6
-405.38
-476.89
-454.88
-445.71
-445.64
-438.65
-424.78
-433.28
-349.5
-404.43
-413.03
-364.11
-311.69
-322.58
-363.21
-339.85
-305.21
-314.02
-273.15
-264.99
-267.43
-278.08
-201.76
-224.36
-232.1
-219.09
-157.39
-176.21
-159.06
-89.41
-69.36
-121.81
-94.7
-110.14
-98.45
-56.93
-56.11
-34.92
17.4
-4.13
47.87
91.14
81.41
53.97
95.15
83.69
99.83
121.98
146.75
206.25
181.43
155.12
185.16
262.52
255.14
283.97
221.66
268.53
269.09
311.26
339.01
284.29
384
358.03
354.4
346.91
380.58
373.66
421.25
446.5
377.36
441.04
384.64
431.77
409.97
465.39
493.9
467.04
473.91
520.87
445.34
445.25
496.02
535.77
471.4
519.4
540.49
535.9
450.21
495.31
486.95
517.79
459.16
504.97
481.93
479.71
509.85
485.78
462.16
458.46
439.7
517.23
441.89
424.31
499.18
455.31
463.2
480.83
457.58
445.82
448.13
358.47
377.16
412.67
399.11
403.36
337.53
292.65
296.38
268.01
310.59
1753.36
266.02
273.35
296.85
226.98
219.99
191.96
198.3
219.36
205.42
199.83
140.61
134.88
140.82
94.64
58.95
30.92
59.26
-1.92
-13.84
25.16
34.35
12.63
-76.6
-61.33
-116.31
-124.02
-102.23
-94.64
-114.19
-94.01
-140.16
-133.52
-218.05
-150.44
-181.05
-191.72
-260.71
-205.21
-240.23
-250.54
-334.46
-311.72
-266.14
-353.93
-318.54
-377.48
-361.79
-358.29
-329.79
-384.28
-400.65
-374.74
-367.84
-459.6
-432.46
-437.41
-440.18
-430.13
-491.95
-448.5
-513
-519.97
-494.38
-515.94
-467.19
-522.56
-541.45
-502.15
-505.95
-505.48
-530.42
-489.72
-537.67
-470.26
-494.03
-546.36
-460.03
-493.68
-452.45
-507.6
-471.31
-465.86
-480.73
-501.58
-457.46
-457.74
-457.57
-454.54
-475.47
-398.92
-462.9
-371.64
-445.96
-373.76
-423.4
-333.86
-358.93
-345.13
-370.08
-376.91
-342.68
-304.69
-269.3
-264.3
-298.75
-254.91
-257.6
-241.14
-267.71
-194.41
-210.21
-206.41
-190.64
-177.64
-126.73
-82.13
-104.49
-72.21
-50.79
-118.7
-22.17
-2.58
-34.08
19.44
-39.7
-20.49
5.96
44.31
87.46
83.43
132.26
133.46
145.59
172.85
138.04
136.27
156.4
220.9
176.64
200.33
225.35
249.91
310.85
241.22
290.79
264.06
274.29
290.44
358.88
297.61
356.53
354.56
346.89
393.82
382.32
414.56
369.25
455.6
476.19
403.79
434.43
473.82
427.37
439.54
427.19
441.99
1979.52
449
525.61
515.76
487.59
513.19
532.87
544.24
480.37
495.49
470.37
483.19
497.84
512.81
462.29
450.18
488.83
533.36
474.61
468.44
467.67
483.25
449.63
419.52
422.25
492.5
403.2
411.59
434.84
454.26
447.9
382.8
383.43
417.87
331.08
386.85
326.56
359.07
321.28
288.77
283.51
255.95
298.27
281.36
228.4
212.26
218.7
204.3
219.85
197.9
202.41
146.81
132.08
97.22
151.42
121.44
73.82
103.8
103.31
92.66
74.09
-7.42
42.91
-7.71
-12.03
-38.46
-55.33
-91.71
-104
-93.76
-93.74
-156.96
-136.61
-170.73
-204.91
-228.01
-191.1
-232.29
-226.25
-219.22
-232.74
-323.14
-284.52
-301.18
-316.24
-348.65
-286.44
-369.88
-400.99
-368.18
-379.54
-410.47
-433.58
-380.69
-420.55
-419.68
-386.13
-422.19
-471.47
-434.06
-498.92
-477.24
-448.27
-472.26
-434.34
-448.89
-478.05
-534.17
-493.09
-513.86
-492.67
-517.75
-514.2
-451.31
-466.74
-524.76
-454.17
-484.71
-483.66
-454.69
-479.8
-460.35
-465.66
-464.57
-428.42
-488.19
-464.39
-507.32
-464.58
-447.22
-482.19
-466.8
-473.04
-404.05
-405.81
-354.96
-370.78
-335.12
-357.39
-392.22
-341.67
-347.07
-373.53
-319.54
-282.39
-296.17
-286.02
-284.23
-276.59
-294.85
-275.06
-244.14
-200.54
-152.56
-142.89
-191.94
-115.67
-107.92
-71.56
-67.47
-59.22
-36.38
-35.36
-59.76
-30.63
11.15
-23.81
-0.5
60.86
59.72
85.54
32.87
68.63
57.97
154.27
130.39
120.2
191.28
201.01
208.63
166.87
195.2
246.3
212.16
274.28
252.54
310.37
264.98
347.14
344.3
362.1
315.49
368.24
402.53
405.92
389.43
439.59
436.39
399.08
396.51
442.98
478.45
469.98
449.62
442.02
454.6
491.06
423.79
456.94
459.21
477.43
502.12
470.03
527.84
503.19
470.73
498.22
549.17
482.19
524.34
522.33
521.01
543.01
466.2
473.8
451.99
456.83
457.08
499.12
433.98
512.56
493.27
432.64
490.49
427.24
463.76
419.24
384.94
419.22
426.19
403.4
336.53
409.91
350.52
361.75
360.48
337.41
305.09
330.2
268.3
320.59
297.97
266.09
281.67
270.55
267.06
158.42
235.74
138.16
139.73
115.65
144.24
91.19
67.51
133.19
44.07
68.65
77.74
45.56
50.85
-13.67
-43.16
-60.67
-20.49
-67.43
-94.43
-98.84
-136.6
-78.55
-119.36
-185.29
-200.01
-220.58
-218.57
-196.24
-203.16
-186.74
-263.39
-224.72
-236.69
-317.25
-269.25
-346.37
-295.94
-305.57
-372.57
-373.66
-404.53
-381.92
-390.55
-427.46
-449.61
-450
-398.11
-452.4
-410.91
-490.94
-422.35
-462.39
-498.55
-498.63
-496.39
-504.87
-513.46
-488.75
-467.96
-538.94
-496.04
-536.26
-488.91
-468.16
-506.7
-499.7
-471.66
-515.13
-504.14
-490.24
-472.71
-487.63
-440.59
-466.16
-476.29
-442.59
1040.85
-426.98
-477.55
-459.96
-454.65
-491.49
-478.81
-425.55
-437.37
-387.62
-392.91
-408.34
-391.33
-397.7
-393.62
-394.52
-385.21
-350.85
-366.6
-299.05
-330.73
-254.36
-257.02
-276
-263.5
-268.42
-272.24
-252.56
-151.42
-188.6
-157.99
-199.85
-150.45
-126.87
-129.15
-68.82
-94.02
-59.29
-34.2
-9.88
10.05
41.8
-3.67
73.91
22.24
51.93
62.41
70.51
144.82
93.47
122.84
163.61
206.67
212.39
171.53
163.79
245.83
215.24
206.22
251.02
297.1
316.31
273.22
335.9
355.01
330.31
342.26
354.11
335.96
336.08
349.07
350.89
424.57
375.53
405.64
473.46
421.69
449.85
468.44
419.44
476.38
423.25
485.07
493.36
458.08
507.34
486.64
504.22
505.63
509.63
459.68
453.83
462.42
482.67
501.28
475.28
488.01
538.55
462.45
481.37
448.55
455.62
523.73
462.49
515.83
499.16
489.35
440.04
426.19
455.19
452.89
437.71
455.48
391.26
418.96
417.21
360.14
347.84
344.45
355.29
388
299.84
276.55
353.91
344.99
291.07
284.41
279.36
214.51
194.68
254.48
210.09
155.97
209.07
209.07
159.36
134.92
97.26
73.72
126.3
123.44
92.22
35.13
44.51
-19.79
30.49
22.77
22.86
-4.7
-100.81
-23.87
-113.37
-60.88
-91.45
-120.73
-135.93
-198.51
-122.63
-181.73
-199.56
-176.02
-204
-237.45
-231.33
-287.44
-319.79
-255.73
1213.22
-328.24
-294.94
-345.6
-393.58
-365.37
-329.16
-384.05
-340.97
-403.21
-395.74
-445.87
-407.24
-467.59
-403.24
-432.12
-502.24
-453.22
-426.17
-512.83
-482.77
-461.71
-488.67
-500.39
-450.77
-460.06
-477.85
-507.73
-546.95
-484.82
-529.49
-531.01
-501.61
-467.31
-468.03
-467.04
-509.78
-500.97
-479.84
-509.52
-498.83
-522.49
-438.08
-428.48
-507.48
-424.77
-436.11
-454.09
-387.16
-445.48
-392.38
-408.01
-375.16
-404.09
-333.52
-411.93
-387.73
-390.86
-335.23
-288
-352.81
-331.19
-301.63
-308.17
-272.52
-209.57
-277.88
-248.47
-173.74
-171.51
-190.77
-213.65
-123.56
-182.16
-109.31
-88.22
-100.72
-65.76
-86.97
-46.72
-10.91
-50.68
-21.53
-41.17
13.17
39.13
33.56
41.12
71.47
81.63
98.85
80.8
139.46
130.32
195.89
156.61
183
215.62
200.3
267.81
232.02
261.53
287.43
314.71
323.08
313.88
370.59
295.56
331.17
358.64
390.33
330.77
384.12
372.83
403.48
402.07
402.15
456.91
393.38
425.24
452.13
483.67
431.08
453.65
430.59
483.11
466.47
521.93
465.5
519.06
460.13
497.94
514.84
478.06
524.19
526.68
511.95
491.15
508.51
511.31
462.55
492.08
454.92
490.06
441.82
521.53
424.88
497.89
460.37
427.24
405.53
391.7
461.29
474.44
429.71
437.15
414.13
375.36
340.56
358.46
332.12
352.59
333.08
325.28
308.91
313.59
285.22
299.6
310.97
238.38
205.45
221.87
226.95
198.23
196.2
187.08
161.93
188.96
176.36
79.19
147.73
74.82
68.97
95.57
87.54
-12.58
-5.03
-8.71
-61.26
-70.2
-14.11
-52.61
-28.17
-128.42
-119.45
-88.32
-166.64
-149.71
-134.27
-206.79
-191.31
-239.74
-260.83
-253.34
-269.87
-284.92
-299.8
-309.6
-327.12
-311.13
-276.47
-367.39
-372.83
-331.65
-338.99
-399.42
-435.12
-423.83
-362.26
-414.98
-382.93
-428.36
-479.72
-470.11
-496.19
-475.84
-432.24
-451.55
-490.99
-514.26
-439.81
-477.03
-441.34
-498.22
-493.12
-501.01
-461.08
-462.06
-501.42
-467.04
-531.16
-490.85
-513.64
-452.89
-474
-530.76
-504.13
-440.49
-475.68
-481.95
-469.89
-455.35
-452.79
-491.61
-444.43
-475.4
-406.57
-420.94
-398.51
-387.17
-449.76
-363.65
-352.19
-357.7
-365.8
-390.9
-349.76
-346.12
-301.36
-323.73
-311.18
-256.59
-231.83
-227.92
-275.41
-236.72
-203.95
-213.76
-218.38
-155.92
-208.41
-102.02
-179.58
-99.28
-85.62
-123.67
-100.07
-53.1
-85.69
-78.15
4.23
-20.74
-18.84
79.11
28.58
78.48
89.05
130.93
92.07
128.19
103.84
122.02
183.38
168.35
192.45
245.37
203.86
274.87
277.03
273.61
303.79
303
294.19
302.12
341.78
356.26
303.22
394.94
359.58
393.95
405.05
422.53
430.5
398.28
439.57
458.1
426.87
476.61
470.94
437.7
473.21
446.74
460.01
2010.5
472.92
509.86
468.91
464.3
445.64
528.76
454.5
543.36
496.64
512.24
495.1
521.06
470.3
514.08
458.19
523.33
446.33
525.47
526.42
476.57
508.46
498.03
470.32
445.72
438.1
436.69
469.22
435.15
387.45
415.46
409.05
421.24
393.45
386.68
407.68
356.79
353.4
351.31
311.14
260.58
282.18
292.14
312.6
220.34
252.93
260.4
267.79
219.02
207.89
191.69
205.24
200.71
124.68
123.25
94.48
88.44
50.67
52.28
70.42
82.04
7.83
-10.33
-60.47
-23.94
-72.25
-12.12
-48.43
-54.48
-100.66
-113.89
-87.98
-103.62
-162.05
-197.8
-179.92
-171.01
-231.73
-204.76
-217.97
-220.76
-270.96
-250.55
-343.59
-281.22
-367.64
-314.8
-328.67
-387.7
-378.93
-356.5
-401.54
-377.61
-430.1
-366.45
-464.73
-399.32
-434.44
-459.79
-407.77
-486.87
-478.74
-455.25
-496.38
-517.32
-529.78
-513.33
-534.71
-490.58
-476.39
-533.02
-460.43
-530.29
-483.64
-468.05
-457.86
-461.34
-499.29
-448.8
-464.29
-485.76
-464.76
-443.39
-496.74
-513.75
-448.09
-445.31
-458.12
-504.34
-440.58
-464.51
-436.4
-411.47
-403.15
-391.5
-364.83
-360.8
-422.93
-337.57
-319.39
-365.74
-331.04
-344.54
-368.89
-359.35
-273.76
-277.36
-294.68
-297.07
-253.82
-246.43
-243.06
-207.12
-234
-159.6
-129.48
-115.18
-157.39
-167.42
-90.97
-114.65
-47.86
-110.61
-8.92
11.86
-24.79
18.18
1523.03
65.32
11.61
73.78
54.12
101.51
82.31
123.94
123.23
135.46
125.69
189.36
160.38
193.41
185.76
234.7
227.56
236.16
237.88
286.64
305.08
352.93
269.65
355.44
376.5
352.49
379.19
371.97
339.17
373.66
414.23
398.89
410.8
432.5
441.09
469.6
467.53
443.5
456.57
474.14
489.21
463.41
525.19
444.32
448.56
481.7
490.75
534.51
530.83
454.8
521.09
493.99
477.62
533.97
505.44
493.75
452.61
533.08
537.78
521.57
525.26
512.89
517.76
456.19
466.21
420.08
434.7
484.66
412.32
429.66
378.63
411.7
362.82
394.96
405.41
345.28
415.9
407.61
324.89
338.88
309.55
264.91
255.63
265.67
265.09
295.08
253.09
252.66
257.76
246.08
172.67
135.22
145.07
145.37
185.45
127.06
78.91
87.86
61.7
67.26
10.24
76.07
0.9
6.41
37.75
22.55
-19.94
-69.37
-107.24
-104.74
-127.19
-125.75
-81.36
-130.5
-120.57
-217.69
-173.17
-174.32
-173.31
-230.78
-244
-248.05
-295.81
-234.19
-292.13
-264.41
-264.32
-374.41
-287.24
-306.85
-341.96
-402.31
-384.71
-410.64
-387.76
-366.82
-383.99
-462.33
-473.9
-430.69
-457.36
-448.27
-476.56
-511.71
-445.17
-463.7
-505.63
-497.96
-454.8
-454.57
-533.88
-463.02
-532.74
-519.38
-496.67
-511.32
-532.92
-501.06
-470.77
-495.61
-465.73
-517.63
-509.18
-443.6
-524.1
-511.29
-516.22
-427.93
-509.72
-438.59
-470.33
-450.31
-468.03
-393.35
-459.19
-440.12
-403.89
-400.96
-386.91
-404.9
-330.77
-374.98
-349.22
-293.45
-330.98
-283.52
-308.32
-311.38
-240.22
-294.94
-204.01
-217.23
-263.48
-207.3
-159.21
-148.12
-137.29
-160.77
-152.75
-160.46
-133.61
-54.41
-40.78
-111.38
-16.4
-21.51
-42.34
-16
54.66
10.86
57.4
74.81
45.38
62.66
120.25
154.6
101.54
166.53
197.76
202.13
176.79
211.77
224.79
189.78
235.4
225.89
240.7
307.4
243.71
258.88
282.85
369.99
337.17
330.01
331.73
360.41
345.59
368.3
398.49
374.47
383.01
416.51
394.38
474.68
471.79
425.1
446.77
433.87
431.65
510.46
513.04
512.46
491.64
488.6
478.03
501.49
516.71
469.41
537.06
514.29
498.51
511.71
455.74
527.2
477.39
455.98
499.63
462.12
453.94
474.12
450.25
447.08
447.97
437.42
469.62
467.72
443.37
473.94
403.73
388.56
371.02
405.77
438.11
341.35
334.52
394.13
305.75
337.15
341.21
314.71
323.34
337.33
288.64
281.31
272.02
290.53
260.62
226.19
160.42
216.15
155.11
137.36
155.71
133.31
138.39
98.36
90.81
27.3
55.01
11.23
64.98
-6.55
-13.3
-35.49
-21.88
-90.44
-29.87
-72.69
-59.55
-110.94
-168.12
-170.88
-154.87
-198.79
-137.98
-238.88
-181.23
-262.33
-204.5
-255.86
-237.52
-267.66
-312.57
1225.75
-307.15
-344.11
-289.71
-299.18
-340.59
-330.63
-359.46
-356.76
-355.09
-386.11
-393.42
-464.86
-382.66
-484.62
-492.99
-420.18
-467.55
-414.51
-501.04
-465.42
-521.61
-438.52
-441.43
-494.27
-533.49
-456.85
-542.09
-482.44
-520.3
-520.21
-535.88
-461.98
-471.68
-458.21
-460.19
-501.59
-519.77
-532.15
-486.31
-458.35
-501.62
-510.52
-496.3
-486.74
-421.1
-409.56
-472.53
-395.46
-468.77
-435.37
-393.68
-447.01
-437.74
-366.04
-356.26
-323.19
-330.95
-339.66
-343.33
-333.68
-337.94
-259.8
-237.41
-272.36
-264.67
-240.36
-266.02
-241.84
-241.39
-208.76
-133.06
-202.39
-108.14
-84.25
-88.1
-121.46
-100.71
-108.96
-105.94
-50.83
-14.59
-60.87
23.68
-33.81
-0.5
-3.9
10.52
69.06
103.99
107
117.3
168.93
196.96
126.02
209.51
147.05
187.86
194.21
214.94
283.47
214.18
240.64
289.17
305.77
307.18
346.02
340.71
308.04
322.08
412.58
347.42
346.9
392.27
449.76
420.93
384.1
463.12
455.12
411.1
432.87
439.82
437.63
486.84
432.68
498.56
446.72
503.1
536.21
528.55
452.07
499.27
521.44
456.42
536.37
488.08
484.58
547.97
469.79
524.79
449.74
474.59
463.43
451.34
490.21
504.43
449.8
457.5
416.9
472.87
433.55
437.48
457.15
401.31
395.02
457.58
363.76
379.91
341.71
413.45
319.66
319.88
302.73
382.57
364.9
290.45
275.61
1775.45
308.62
212.49
296.56
212.23
188.14
249.09
155.94
194.34
205.27
140.5
166.05
119.62
125.61
48.44
30.63
97.73
84.74
43.14
-28.35
27.91
-40.36
-66.87
-77.61
-64.82
-25.23
-133.05
-139.92
-99.32
-103.68
-123.44
-131.18
-211.3
-225.98
-189.32
-248.61
-275.44
-195.2
-229.21
-283.4
-328.32
-311.51
-319.47
-293.36
-307.01
-386.62
-327.84
-374.23
-371.86
-372.72
-436.5
-400.68
-373.61
-420.28
-460.03
-479.41
-477.19
-494.29
-446.73
-488.1
-446.7
-476.33
-448.19
-521.38
-531.84
-514.1
-476.6
-514.95
-489.46
-509.44
-454.35
-455.52
-450.32
-450.73
-544.92
-524.52
-503.42
-491.33
-496.17
-459.39
-533.62
-510.77
-451.71
-442.11
-507.09
-492.06
-507.3
-441.04
-458.13
-431.36
-479.05
-379.81
-440.02
-413.27
-374.74
-406.13
-393.23
-381.43
-380.96
-337.52
-365.35
-276.53
-297.91
-318.3
-306.68
-324.37
-252.05
-208.33
-216.31
-182.48
-212.02
-203.97
-175.99
-210.76
-128.48
-92.11
-84.29
-143.91
-51.87
-67.45
-27.91
-89.27
-70.67
-27.67
-54.51
-37.64
11.57
-9.04
11.11
105.75
97.79
111.91
122.15
79.52
159.22
201.02
136.43
194.11
167.23
243.61
225.94
203.28
219.59
254.15
315.46
276.66
350.68
324.63
332.08
291.18
381.35
338.18
350.92
373.13
360.74
439.8
448.23
400.9
465.49
443.34
453.22
465.17
502.29
457.36
462.11
490
502.25
491.3
446.3
508.73
516.87
493.46
477.36
476.92
478.49
492.68
477.55
484.74
458
504.86
499.48
497.26
528.16
452.13
486.6
475.79
458.14
436.39
430.51
486.82
483.22
445.37
421.4
441.42
387.65
455.68
462.51
400.7
420.64
388.06
341.15
391.7
309.31
369.2
317.39
356.9
344.02
281.68
258.52
291.29
256.5
266.21
205.72
206.95
198.71
219.89
194.81
176.57
184.75
183.03
145.26
158.82
104.05
58.59
101.18
73.28
27.87
69.32
42.13
-13.49
-49.86
-78.76
-60.1
-19.47
-93.83
-109.61
-104.55
-115.35
-183.37
-201.49
-128.71
-224.22
-180.15
-170.41
-234.94
-229.29
-277.36
-304.89
-234.76
-333.61
-258.57
-294.57
-359.61
-319.42
-319.67
-399.62
-355.56
-360.47
-379.08
-380.36
-370.01
-452.1
-466.94
-404.95
-401.3
-444.39
-430.91
-508.38
-494.4
-504.74
-425.57
-493.6
-509.31
-469.31
-492.39
-515.57
-481.18
-455.87
-453.73
-522.87
-463
-532.22
-458.19
-522.36
-489.47
-537.38
-454.44
-459.51
-477.39
-490.6
-489.51
-432.59
-444.88
-475.91
-463.05
-483.21
-479.74
-423.29
-437.15
-422.71
-432.69
-406.69
-421.42
-368.69
-418.61
-370.21
-364.69
-352.7
-308.39
-328.94
-307.59
-330.02
-258.2
-319.42
-265.79
-241.67
-243.04
-224.07
-164.47
-181.45
-147.54
-129.94
-140.86
-139.68
-105.74
-68.32
-79.04
-100.75
-82.66
-54.77
-80.74
9.72
-58.47
1500.33
-29.87
4.92
53.08
73.13
65.82
50.16
127.1
99.1
119.48
103.54
158.81
162.9
153.66
204.54
184.43
221.97
206.04
234.53
290.84
275.71
306.13
273.53
348.66
296.48
347.62
342.31
409.53
364.16
424.2
400.37
393.98
454.02
432.25
397.03
466.96
409.12
468.09
420.84
437.15
495.63
469.54
454.08
439.31
526.35
489.62
477.05
543.42
457.06
529.83
451.14
460.57
492.36
469.45
535.96
506.35
540.72
452.08
453.75
512.38
450.15
509.67
515.69
466.54
495.4
419.82
455.7
486.42
454.05
391.62
431.27
443.36
443.62
433.49
347.68
354.35
400.86
368.53
387.42
367.16
361.72
338.85
275.29
293.72
251.9
239.96
218.37
230.72
214.12
242.75
174.51
138.82
156.72
164.25
169.61
158.23
138.39
69.71
58.11
35.45
91.71
-1.24
2.19
52.75
5.51
2.32
-65.02
-66.86
-25.82
-125.34
-49.14
-100.64
-152.01
-140.55
-166.13
-212.54
-222.64
-221.02
-205.24
-260.03
-187.52
-250.28
-269.34
-225.09
-279.86
-282.05
-332.25
-347.8
-295.17
-341.97
-335.67
-377.55
-371.26
-336.44
-346.4
-392.87
-459.3
-374.13
-450.24
-416.46
-483.71
-424.75
-420.63
-422.79
-462.3
-446.08
-443.89
-503.55
-446.22
-521.44
-474.6
-499.26
-454.07
-523.53
-527.29
-511.2
-455.93
-452.42
-475.07
-452.32
-543.82
-529.97
-448.93
-533.31
-481.58
-439.53
-481.05
988.37
-421.93
-448.21
-468.27
-464.73
-448.1
-442.05
-475.49
-395.85
-418
-436.74
-370.81
-382.02
-331.33
-345.69
-337.7
-360.8
-314.19
-363.6
-300.64
-303.27
-331.97
-241.03
-219.14
-269.69
-260.33
-250.52
-197.38
-207.4
-147.13
-207.44
-184.93
-136.39
-99.26
-149.24
-91.79
-61.67
-97.48
2.63
-64.11
-32.82
-2.79
-0.67
19.8
16.77
97.71
82.64
114.4
88.55
95.24
164.06
184.06
116.23
134.53
158.37
250.08
214.79
267.54
223.51
302.75
305.32
280.54
311.85
283.93
330.04
328.69
321.7
381.88
404.02
356.55
412.54
408.88
431.28
372.57
406.45
388.96
463.95
397.94
449.92
424.79
418.57
485.13
484.68
507.23
441.04
511.28
459.32
462.67
459.32
511.26
524.55
510.8
511.28
515.56
541.14
513.56
474.49
453.01
485.81
518.65
477.53
530.19
512.15
481.85
457.27
449.07
501.09
472.94
482.59
488.09
388.14
462.33
467.49
434.85
354.18
423.76
344.16
373.07
332.46
365.85
354.34
288.34
313.31
338.75
254.95
236.09
309.54
259.09
260.72
197.56
246.44
175.78
145.57
156.45
179.82
128.17
116.05
154.26
151.51
82.96
82.95
19.36
-1.54
-12.82
-21.58
-13.82
16.22
-75.97
4.14
-102.21
-32.22
-41.02
-58.4
-73.94
-84.01
-161.07
-178.88
-213.21
-237.5
-207.65
-187.35
-278.26
-203.56
-241.85
-222.23
-296.2
-257.1
-312.42
-279.12
-347.72