-74.88
-84.39
-112.61
-63.27
-131.71
-150.28
-194.36
-219.29
-141.95
-242.11
-213.12
-273.84
-196.74
-207.42
-285.35
-309.53
-303.31
-254.36
-341.86
-296.5
-333.03
-331.7
-407.07
-401.71
-359.14
-398.17
-396.29
-442.32
-399.6
-422.55
-395.84
-474.8
-482.49
-475.42
-476.52
-511
-488.57
-468.3
-499.52
-523.49
-472.36
-440.46
-460.41
-505.9
-531.64
-496.88
-536.19
-543.55
-473.27
-488.31
-461.84
-498.05
-456.2
-521.27
-523.45
-478.79
-524.15
-455.2
-454.55
-468.19
-499.7
-430.75
-415.19
-440.22
-465.4
-474.26
-457.37
-456.81
-442.44
-445.62
-397.24
-354.6
-346.94
-367.84
-358.67
-339.84
-364.37
-302.36
-332.94
-261.5
-321.96
-236.74
-240.28
-227.92
-217.13
-226.98
-230.22
-176.7
-132.4
-145.33
-170.39
-122.57
-112.57
-111.01
-53.49
-57.52
-23.3
-55.88
-68.08
17.84
1503.98
67.91
56.56
9.97
86.97
110.6
49.82
75.45
148.65
104.58
107.5
207.77
145.78
168.63
246.94
260.58
255.57
231.25
306.66
243.79
291.98
280.94
351.05
346.28
356.7
364.84
362.74
416.91
344.23
372.77
438.99
396.88
460.24
387.82
403.25
431.05
438.58
438.5
425.71
454.03
444.16
486.91
459.77
467.11
484.51
533.45
534.02
496.73
514.48
458.97
546.34
507.1
534.21
510.72
480.12
456.17
509.63
466.5
493.17
473.88
456.29
438.07
483.12
482.83
490.94
439.03
411.49
415.39
487.13
389.07
461.82
416.22
458.02
382.05
425.64
388.4
384.62
361.86
400.98
326.35
336.63
354.03
354.16
296.51
240.65
275.74
302.94
195.78
200.63
194.9
252.21
236.93
134.84
177.82
168.87
83.95
96.28
70.18
58.71
28.15
29.72
61.64
49.42
37.64
-26.53
9.91
-53.58
-65.18
-108.25
-69.76
-48.91
-153.45
-81
-116.42
-177.9
-191.27
-186.24
-177.81
-180.89
-180.41
-251.91
-259.52
-277.03
-274.64
-294.26
-344.59
-349.54
-305.74
-352.23
-318.59
-348.15
-404.37
-330.54
-414.11
-399.81
-446.22
-446.6
-420.94
-435.18
-453.68
-471.49
-431.8
-458.27
-433.64
-465.18
-474.49
-512.21
-458.11
-501.38
-452.33
-452.06
-445.08
-502.09
-480.62
-536.7
-505.14
-518.18
-519.03
-460.77
-498.67
-495.63
-482.02
-491.23
-523.89
-517.34
-528.89
-520.75
1030.77
-432.25
-494.52
-414.27
-417.15
-416.68
-400.39
-461.65
-464.73
-413.69
-401.83
-397.84
-375.91
-418.39
-402.32
-380.89
-361.67
-313.86
-290.77
-357.12
-276.9
-262.88
-307.22
-251.77
-224.88
-273.72
-243.46
-195.17
-201.21
-206.25
-150.59
-147.22
-142.13
-90.47
-70.37
-129.29
-101.64
-95.32
-90.76
-17.22
-58.66
3.41
-9.5
42.22
88.38
85.88
105.18
124.56
57.29
114.85
180.26
136.15
140
163.12
182.3
239.14
190.96
242.23
199.47
249.69
259.48
295.77
281.24
313.63
366.42
306.44
320.64
375.51
410.56
392.41
396.13
433.67
391.11
413.18
453.23
471.84
469.75
477.61
410.18
470.58
435.5
443.01
430.84
471.27
510.74
497.33
522.68
462.57
483.24
451.73
545.99
470.64
476.08
493.15
509.39
484.04
544.69
469.74
470.42
452.59
446.8
457.71
492.6
500.83
501.18
455.5
436.9
495.46
423.48
452.33
477.88
436.87
385.47
402.99
392.6
395.1
353.43
414.08
323.71
397.56
318.17
369.15
354.87
266.79
279.72
309.66
257.74
240.03
232.73
204.25
237.98
210.2
161.11
200.12
146.38
132.34
127.96
83.04
74.04
97.2
102.93
92.78
31.89
1.97
-2.11
-44.59
-60.78
-21.73
-28.87
-8.23
-86.35
-85.28
-119.21
-83.15
-169.53
-156.58
-152.24
-214.6
-189.18
-247.25
-219.98
-229.69
-194.28
-248.74
-315.05
-243.56
-337.68
-316.47
-344.04
-305.19
-315.28
-322.85
-342.09
-422.11
-373.94
-407.58
-438.77
-418.99
-369.71
-411.4
-443.22
-463.22
-496.6
-443.35
-465.36
-497.68
-465.96
-501.89
-487.9
-518.07
-473.24
-486.02
-497.83
-471.69
-511.56
-494.04
-523.61
-512.84
-529.97
-527.25
-458.79
-500.71
-480.3
-541.73
-449.94
-486.16
-502.6
-449.43
-491.05
-506.47
-420.25
-479.24
-418.31
-436.85
-420.19
-384.91
-413.93
-388.31
-417.86
-435.94
-435.76
-327.26
-381.52
-390.64
-375.92
-313.52
-360.16
-279.35
-269.37
-332.41
-249.78
-226.97
-246.29
-281.98
-240.2
-175.9
-167.21
-219.03
-160.69
-182.77
-115.25
-83.51
-83.05
-51.73
-80.14
-57.59
-100.13
-57.38
-54.36
25.16
-7.61
17.93
5.89
32.05
107.8
96.6
74.13
100.89
155.5
154.05
135.42
179.92
141.06
189.55
260.95
206.07
224.68
291.04
226.51
262.24
292.26
268.02
285.4
327.5
367.02
360.43
319.05
405.03
428.53
404.61
398.69
385.08
385.86
389.82
423.22
434.01
408.56
438.12
470.45
510.62
512.14
449.52
436.92
506.94
484.06
449.69
530.46
519.99
505.97
536.78
546.81
525.89
477.97
518.35
448.51
452.89
486.24
488.39
457.5
463.5
478.22
448.47
476.83
489.94
488.13
477.23
466.15
427.08
469.36
434.1
389.74
422.11
407.85
352.85
421.89
381.57
339.08
358.4
341.79
378.24
284.29
328.69
317.62
1785.94
285.44
239.33
224.77
262.36
176.38
230.76
158.06
154
148.97
196.04
188.22
151.33
131.84
99.67
120.89
74.56
52.56
78.12
70.01
0.35
-33.49
-58.52
5.53
-58.43
-88.5
-129.1
-116.97
-144.32
-145.8
-188.41
-173.89
-169.99
-229.58
-150.14
-228.13
-264.87
-193.22
-292.49
-291.94
-280.24
-327.58
-270.3
-284.36
-373.03
-354.66
-362.71
-402.72
-355.25
-423.53
-375.93
-385.37
-440.17
-380.74
-437.78
-395.08
-472.97
-483.27
-448.06
-431.55
-433.89
-508.32
-489.97
-452.64
-485.19
-488.49
-500.18
-535.33
-492.01
-507.74
-486.94
-499.81
-522.74
-506.16
-477.71
-529.07
-485.46
-454.85
-503.65
-457.12
-535.64
-526.42
-464.31
-501.3
-482.26
-438.01
-469.96
-494.08
-479.33
-483.57
-399.37
-391.2
-369.92
-407.2
-443.3
-355.91
-426.42
-347.02
-350.31
-310.7
-352.37
-288.67
-266.04
-291.7
-291.43
-327.91
-268.49
-261.63
-194.7
-259.14
-255.39
-236.77
-144.34
-220.68
-144.36
-99.69
-154.67
-119.69
-102.11
-106.74
-46.6
-104.57
-35.6
-9.9
-32.99
-15.14
-21.98
11.99
76.65
34.91
116.84
98.97
119.28
109.96
149.57
105.03
162.22
205.93
230.9
188.52
199.9
187.5
265.5
280.77
231.7
283.15
312.16
341.74
308.17
356.04
311.41
333.39
404.54
387.3
409.8
414.09
387.17
399.93
375.74
459.11
435.97
479.47
475.66
409.99
451.17
503.2
482.2
1976.05
522.41
460.47
520.87
520.38
520.47
515.4
500.31
498.42
474.58
537.57
467.72
452.13
469.96
448.15
518.21
532.55
520.13
530.74
486.22
495.16
440.76
514.08
495.54
423.64
467.82
456.15
438.23
397.49
398.57
417.14
444.26
398.73
412.71
338.97
348.74
388.77
345.25
309.96
323.72
343.94
288.52
247.53
256.17
220.26
276.79
275.89
259.05
187.27
187.48
173.21
168.25
148.93
153.7
69.85
81.5
84.4
41.61
11.17
49.91
51.82
15.14
2.8
-55.36
-75.29
-25.01
-109.08
-97.41
-59.22
-135.94
-122.88
-164
-168.89
-195.59
-175.75
-225.83
-245.46
-172.52
-201.24
-230.26
-294.97
-316.44
-296.16
-250.81
-270.39
-311.09
-378.82
-295.88
-359.45
-369.33
-362.78
-431.58
-409.07
-424.55
-379.75
-412.14
-398.92
-433.47
-423.79
-404.64
-407.35
-433.99
-484.4
-493.05
-465.6
-515.08
-533.26
-457.1
-490.1
-485.52
-502.46
-545.25
-487.11
-482.92
-517.79
-465.55
-489.63
-449.62
-534.98
-460.35
-489.84
-457.46
-443.41
-440.7
-518.17
-443.88
-465.72
-485.41
-441.76
-422.61
-415.96
-477.5
-443.72
-415.27
-417.22
-373.78
-436.6
-421.03
-342.45
-338.97
-351.51
-298.74
-299.08
-282.19
-332.98
-313.44
-306.29
-271.74
-215.06
-224.98
-195.84
-261.47
-226.06
-185.96
-138.37
-208.77
-107.33
-182.62
-111.31
-66.35
-43.23
-40.93
-63.58
-26.61
-46.51
34.68
22.81
-10.51
23.22
50.94
36.63
27.48
50.52
144.79
153.95
113.12
130.1
140.32
150.02
150.12
193.06
262.72
192.47
209
233.24
249.24
278.85
255.21
333.74
281.8
361.99
349.28
335.99
323.54
394.02
355.63
414.85
403.86
404.64
458.23
443.75
480.85
489.65
402.55
417.78
437.98
424.68
506.6
448.44
453.7
496.27
473.83
492.88
453.78
479.65
489.22
466.88
457.27
531.44
500.8
501.05
478.55
465.7
541.88
467.55
489.11
531.39
432.37
522.49
511.86
495.35
434.1
463.49
459.55
466.99
421.94
443.43
423.07
441.11
401.46
436.3
413.14
333.43
409.29
340.08
379.18
350.47
302.39
322.31
321.64
245.86
235.11
285.54
202.36
270.47
210.25
188.17
188.5
199.29
122.29
149.12
102.27
149.32
82.62
61.8
102.83
97.17
44.81
67.03
31.11
-9.01
-19.34
13.65
-74.66
-88.24
-96.86
-57.38
-124.16
-122.23
-116.58
-125.38
-115.1
-150.72
-154.88
-187.14
-173.67
-252.3
-289.65
-256.79
-238.66
-237.61
-271.6
-269.04
-288.39
-327.89
-388.77
-313.43
-335.14
-417.57
-389.36
-398.65
-433.06
-374.97
-419.05
-467.48
-395.78
-458.69
-466.58
-439.9
-485.56
-493.02
-462.27
-493.17
-510.12
-528.46
-500.43
-466.73
-481.66
-451.78
-467.77
-528.59
-494.02
-482.37
-502.51
-522.41
-522.56
-539.33
-520.85
-508.08
-442.03
-520.23
-530.53
-512.31
1023.19
-435.55
-465.69
-448.12
-465.93
-416.75
-416.44
-409.05
-399.31
-376.25
-440.65
-401.71
-354.48
-363.29
-380.28
-377.95
-382.58
-307.09
-317.94
-347.47
-342.59
-324.58
-237.52
-251.11
-291.17
-204.68
-256.68
-246.46
-241.33
-224.51
-165.89
-124.87
-113.73
-144.74
-128.54
-58.93
-47.7
-77.73
-20.35
13.84
-6.33
33.87
3.01
40.2
28.49
44.02
23.97
92.89
148.07
78.91
173.55
153.95
141.26
127.63
151.74
171.22
262.25
247.47
264.71
245.13
270.27
286.89
313.96
316.39
298.85
306.82
367.92
319.81
322.35
399.97
393.46
406.24
399.15
421.47
458.03
444.31
466.2
434.85
434.35
485.06
443.29
489.35
516.62
462.63
497.3
444.33
522.78
498.3
484.75
517.58
539.77
451.48
542.15
464.3
453.28
473.18
468.72
484.4
524.5
473.36
443.16
509.23
472.58
519.32
510.68
447.68
478.71
434.56
451.51
431.81
392.42
406.23
396.08
409.21
404.97
379.67
367.29
337.13
403.82
385.62
304.14
298.06
361.63
325.89
272.06
286.22
312.28
288.06
298.71
284.58
205.87
208.97
238.57
136.6
155.31
150.27
138.42
148.47
112.71
126.05
111.14
75.15
101.43
85.8
18.2
-3.4
-28.36
-23.41
-8.73
-66.48
-46.14
-47.82
-63.52
-154.19
-110.65
-188.45
-159.59
-171.75
-165.68
-176.05
-221.67
-212.33
-241.84
-214.15
-218.72
-258.56
-283.74
1191.09
-344.4
-306.52
-295.48
-317.78
-342.43
-384.69
-343.03
-355.63
-438.56
-448.84
-382.7
-403.8
-476.62
-447.84
-432.54
-425.69
-465.08
-507.43
-487.99
-515.65
-497.55
-467.6
-500.56
-492.16
-450.22
-511.65
-488.43
-526.58
-451.19
-471
-505.91
-545.96
-542.86
-502.79
-459.18
-512.8
-499.91
-447.49
-486.83
-462.3
-479.13
-515.52
-504.36
-482.25
-408.57
-479.12
-476.63
-446.27
-428.19
-436.14
-444.5
-434.79
-414.6
-349.49
-364.88
-325.81
-308.34
-341.52
-336.83
-363.33
-325.01
-277.65
-270.12
-236.49
-294.02
-276.01
-270.83
-184.05
-202.86
-202.98
-167.36
-130.73
-98.31
-82.25
-96.43
-69.58
-116.98
-95.51
-45.06
-72.78
-12.39
-51.56
8.09
52.09
-7.31
14.89
56.92
44.07
51.3
126.54
90.28
102.37
134.44
163.16
229.28
243.68
162.12
223.11
199.77
296.38
270.91
242.38
319.1
342.71
313.33
355.81
375.56
384.09
327.52
400.43
426.8
396.7
385.74
434.58
439.2
471.88
440.95
485.04
401.84
468.16
437.95
481.29
435.52
464.3
442.58
445.74
482.03
536.12
462.8
525.78
523.87
525.23
511.63
469.74
509.75
468.03
462.38
500.28
464.04
481.01
537.35
535.11
473.99
444.39
471.33
442
451.68
448.86
490.97
411.2
490.03
408.46
452.99
397.53
409.47
413.34
432.34
421.86
348.43
315.11
357.41
369.31
301.29
313.1
320.07
300.86
246.4
303.57
305.81
280.69
217.34
211.18
194.9
160.1
152.54
166.86
188.84
135.02
111.5
106.19
119.37
39.09
37.76
22.52
67.29
2.89
-23.66
-23.28
-41.01
-21.36
-61.6
-58.53
-79.75
-111.4
-171.76
-100
-149.06
-129
-180
-204.6
-162.67
-232.02
-186.09
-289.18
-304.64
-315.19
-289.18
-347.1
-321.11
-325.41
-298.5
-342.08
-384.37
-408.38
-361.68
-392.55
-442.32
-368.33
-414.42
-462.09
-468.72
-484.53
-447.3
-443.51
-492.22
-507.79
-478.05
-455.3
-502.33
-530.43
-485.39
-488.97
-540.68
-466.19
-457.46
-530.32
-487.76
-476.93
-509.59
-543.22
-470.04
-450.1
-459.65
-511.26
-527.41
-460.01
-492.91
-433.72
-471.39
-471.97
-497.09
-421.47
-489.35
-464.92
-400.79
-419.26
-467.41
-402.03
-397.3
-429.72
-417.82
-375.79
-418.12
-342.58
-312.82
-349.83
-327.41
-279.87
-336.9
-252.97
-304.08
-247.03
-289.49
-210.09
-245.45
-235.94
-212.5
-194.42
-145.89
-191.86
-103.75
-152.6
-135.75
-92.39
-98.68
-84.2
-16.28
-89.24
-4.24
-38.45
-41.66
7.13
32.19
63.25
91.43
74.14
55.08
151.37
121
88.66
145.95
116.1
200.89
157.91
253.65
210.49
184.07
252.68
286.46
237.84
293.78
314.22
311.04
326.89
305.46
376.76
318.41
373.37
332.16
422.09
388.97
364.08
428.11
452.63
464.41
403.87
445.06
467.49
432.88
414.7
475.09
487.37
1939.31
490.61
498.43
449.9
441.64
487.67
485.22
510.69
545.17
547.33
454.36
475.08
490.73
509.55
542.33
465.39
452.42
527.79
486.88
441.79
445.96
496.49
472.54
427.57
408.2
483.86
466.25
450.67
478.64
390.55
406.98
355.98
423.85
356.72
334.54
410.91
393.83
338.91
370.08
276.07
338.96
277.84
279.35
319.19
220.25
218.91
196
234.83
256.15
182.85
141.54
209.74
121.23
121.84
168.78
129.53
118.17
61.62
61.81
58.77
17.07
19.06
37.23
-20.38
-1.62
-79.86
-94.05
-105.19
-78.41
-134.8
-112.2
-161.62
-170.38
-154.26
-141.52
-192.99
-218.93
-201.36
-181.16
-292.52
-264.64
-229.63
-278.22
-293.64
-336.27
-294.25
-299.16
-384.04
-352.01
-352.49
-343.39
-394.76
-345.77
-362.09
-433.73
-458.03
-394.42
-435.21
-474.16
-461.18
-450.79
-476.43
-482.95
-436.41
-473.04
-449.71
-474.78
-453.94
-457
-525.69
-476.49
-473.62
-494.79
-508.43
-548.81
-497.18
-458.17
-450.49
-527.71
-498.71
-533.7
-537.92
-477.22
-462.28
-506.72
-470.31
-476.94
-449.8
-436.54
-463.82
-420.64
-454.54
-382.98
-464.28
-405.12
-359.85
-364.05
-428.68
-390.91
-393.93
-358.54
-339.73
-341.9
-291.23
-320.13
-256.99
-328.52
-301.79
-258
-255.86
-282.37
-240.39
-241.96
-227.75
-157.04
-195.18
-120.29
-94.17
-99.26
-94.48
-74.49
-115.06
-47.51
-56.27
-80.11
-15.53
6.65
1493.4
15.51
73.96
77.38
117.39
72.85
114.89
154.85
88.04
138.3
141.94
213.98
234.94
183.74
204.79
228.18
242.25
249.36
310.66
248.71
291.1
290.94
304.67
297.47
346.18
351.44
369.54
412.83
371.28
367.49
354.75
449.12
376.96
386.46
415.26
405.47
496.13
425.21
492.92
428.46
510.93
521.57
473.19
499.62
474.75
527.48
530.61
505.61
530.21
533.21
509.31
527.75
539.64
464.02
509.86
467.41
465.75
500.37
476.56
534.35
444.11
519.54
444.49
438.45
436.48
461.07
406.97
398.76
409.64
477.6
389.2
462.19
414.76
399.32
391.13
350.92
330.14
344.39
318.9
353.66
298.02
288.11
284.68
254.42
281.67
282.99
268.72
242.72
255.03
244.67
230.88
159.1
179.96
192.23
164.89
154.95
107.73
75.82
120
67.81
33.21
25.06
23.41
-19.28
-35.08
-6.7
8.27
-42.58
-61.4
-53.77
-56.85
-114.95
-98.74
-184.52
-167.76
-202.07
-180.37
-211.38
-243.39
-236.97
-211.73
-238.49
-255.22
-265.04
-329.67
-339.24
-354.45
-310.46
-336.87
-366.64
-373.27
-357.03
-331.86
-412.97
-402.69
-413.07
-421.87
-387.29
-466.34
-454.87
-410.08
-463.06
-443.76
-440.89
-450.84
-460.61
-438.28
-460.24
-494.27
-482.35
-448.73
-487.59
-507.36
-538.96
-490.36
-522.56
-474.7
-509.79
-516.29
-453.25
-527.5
-536.69
-471.64
-469.86
-436.86
-440.47
-507.95
-504.69
-442.19
-434.3
-434.13
-405.16
-419.06
-416.14
-408.04
-460.49
-392.43
-360.55
-346.62
-379.51
-356.29
-320.08
-328.49
-363.48
-364.56
-333.92
-261.72
-313.41
-295.59
-266.27
-235.91
-228.34
-220.18
-226.83
-198.75
-205.23
-188.96
-176.97
-175.59
-91.2
-152.77
-65.17
-74.61
-77.05
-56.57
-63.82
13.91
32.49
-19.67
14.49
-14.71
83.36
63.09
89.63
90.35
86.25
80
169.48
176.89
132.09
158.56
170.35
216.31