1186.05
-301.12
-340.9
-366.37
-394.31
-358.34
-371.6
-398.77
-425.86
-423.64
-419.66
-454.12
-457.3
-397.59
-461.27
-465.17
-439.51
-425.54
-468.31
-432.94
-494.75
-466.49
-447.6
-461.21
-494.1
-526.78
-517.68
-511.19
-498.75
-523.01
-476.7
-541.77
-482.12
-483.07
-483.23
-534.35
-482.81
-521.05
-504.91
-449.58
-475.88
-512.06
-493.57
-462.73
-414.52
-410.34
-474.17
-407.12
-392.65
-440.83
-446.86
-426.51
-383.32
-389.87
-344.7
-371.55
-380.9
-359.9
-348.16
-317.83
-284.64
-303.84
-278.59
-244.25
-263.99
-222.11
-192.04
-199.04
-242.61
-247.42
-232.58
-192.2
-202.28
-96.72
-122.26
-102.06
-123.87
-105.47
-34.9
-80.84
6.87
-66.61
-30.94
26.57
65.9
-6.71
82.71
98.71
59.68
110.95
116.68
170.41
140.74
160.49
167.09
195.32
176.33
161.69
232.17
218.16
247.42
276.46
295.51
330.61
304.77
329.64
365.08
329.55
343.54
367.59
397.57
339.7
415.66
388.51
444.17
407.91
438.13
413.67
472
436.56
429.59
499.24
429.87
464.33
427.79
515.39
524.66
492.03
459.94
534.36
446.18
466.64
480.23
461.65
545.51
497.57
498.47
451.76
479.86
494.18
538.2
504.06
491.1
514.6
442.06
447.61
430.82
427.68
421.43
464.24
485.38
454.53
442.74
454.65
466.31
377.37
440.21
389.24
379.54
340.96
319.08
400.4
309.36
341.44
312.78
269.54
1825.21
328.81
289.51
304.84
205.86
182.06
231.03
244.08
171.1
218.26
198.76
145.1
104.65
139.21
90.14
69.59
106.66
61.45
17.43
46.72
-36.63
-35.27
18.84
0.09
-9.83
-67.63
-38.97
-99
-106.04
-83.69
-124.7
-196.26
-173.66
-139.52
-202.4
-229.12
-176.31
-235.09
-257.31
-256.6
-255.42
-272.59
-312
-354.52
-279.86
-350.96
-381.68
-334.38
-318.3
-402.36
-350.58
-408.6
-401.61
-418.24
-466.39
-448.39
-452.66
-456.16
-403.53
-453.68
-492.6
-456.75
-472.97
-497.07
-479.15
-460.25
-448.33
-493.19
-498.56
-461.68
-468.22
-541.21
-531.3
-529.41
-515.55
-450.1
-505.59
-533.78
-537.5
-517.53
-508.11
-480.02
-475.54
-480.62
-439.34
-511.95
-423.72
-481.13
-495.17
-404.51
-421.28
-469.64
-373.49
-361.65
-405.02
-345.81
-378.58
-377.98
-400.11
-351.78
-353.36
-374.25
-304.81
-268.21
-257.61
-238.28
-259.75
-305.14
-204.18
-188.27
-251.71
-186.11
-211.43
-187.7
-149.21
-105.54
-170.29
-97.42
-148.35
-56.51
-114.64
-69.13
2.51
-62.18
-14.14
20.8
-6.7
64.68
54.57
12.06
102.72
50.8
102.9
157.34
177.38
171.58
154.75
201.9
221.34
223.54
219.92
184.88
218.52
249.37
294.84
308.54
250.14
334.45
347.48
369.29
292.3
387.48
384.87
413.45
339.45
412.03
443.36
365.48
422.52
380.6
479.84
487.46
457.24
473.5
457.41
490.5
480.41
2007.55
495.3
504.79
527.19
445.22
488.16
485
483.45
502.4
529.35
521.45
482.34
523.47
531.94
489.94
502.05
491.29
496.76
500.84
465.93
471.91
424.5
433.21
436.54
483.81
494.97
397.38
433.38
401.48
408.23
414.76
358.58
411.15
336.22
392.45
349.22
397.99
300.66
314.76
348.65
349.85
321.3
264.74
268.46
276.96
280.14
197.54
214.7
222.51
180.46
189.05
172.72
160.42
182.76
162.59
61.2
47.99
83.9
67.93
13.04
39.12
17.34
18.6
-16.96
-39.92
-52.21
-17.12
-99.95
-88.46
-98.29
-132.02
-130.62
-161.92
-173.48
-196.93
-224.43
-153.48
-266.18
-235.28
-258.48
-231.68
-262.06
-290.03
-334.5
-282.44
-343.85
-300.57
-375.39
-398.52
-383.2
-374.76
-377.61
-365.03
-364.36
-418.55
-394.58
-454.07
-425.97
-419.52
-495.54
-409.52
-447.15
-419.93
-474.95
-449.25
-497.79
-463.68
-474
-481.08
-469.26
-455.36
-512.34
-484.03
-477.86
-508.68
-459.76
-502.3
-504.67
-510.01
-522.67
-473.02
-489.91
-508.15
-456.43
-479.48
-488.34
-497.9
-506.13
-504.09
-421.26
-453.84
-414.63
-416.81
-464.87
-430.05
-434.93
-350.74
-383.26
-377.2
-370.4
-359.15
-317.91
-384.75
-359.96
-347.64
-259.62
-270.25
-314.98
-231.32
-215.6
-216.32
-203.81
-228.18
-168.39
-136.29
-165.13
-136.57
-153.61
-95.02
-87.09
-134
-48.06
-54.17
-75
-3.56
-56.5
-43.88
1542.87
-17.76
-1.39
77.64
96.07
99.85
94.73
106.52
154.88
105.98
154.44
204.1
163.82
160.06
231.63
190.15
285.21
224.15
297.45
233.24
339.48
336.45
328.79
284.09
365.04
388.47
377.4
329.05
341.96
422.2
422.81
377.02
395.84
454.19
425.33
412.43
483.48
497.85
485.11
449.58
463.65
428.57
521.61
524.56
497.97
471.35
459.98
539.07
470.41
508.05
521.74
499.11
524.18
536.08
493.71
489.34
531.24
456.76
472.37
532.11
449.8
439.68
476.07
482.85
446.33
464.84
475.9
445.39
428.74
465.52
393.59
383.96
443.35
373
356.98
341
402.83
385.69
323.88
336.06
360.31
326.77
263.76
313.24
269.56
295.47
251.34
232.8
178.6
209.78
181.24
185.32
216.18
147.36
115.77
148.21
142.28
128.12
101.12
89.78
101.03
-5.49
-7.54
-5.74
-39.08
-35.24
-64.84
-97.5
-26.52
-86.95
-47.9
-87.45
-112.9
-146.11
-121.75
-206.85
-186.73
-240.36
-214.98
-224.95
-207.28
-298.94
-295.89
-265.57
-293
-283.46
-309.42
-299.65
-327.93
-348.67
-364.96
-381.67
-403.85
-411.22
-387.61
-397.11
-367.62
-413.45
-386.77
-421.97
-410.3
-451.09
-488.02
-432.25
-463.98
-460.89
-475.99
-511.62
-525.25
-495.59
-465.15
-494.3
-483.23
-510.33
-486.01
-505.15
-475.12
-512.7
-498.81
-474.8
-494.62
-509.22
-456.3
-457.62
-452.78
-499.31
985.04
-462.77
-474.2
-487.57
-503.27
-431.72
-465
-385.57
-464.25
-455.98
-380.13
-360.08
-369.27
-411.02
-401.59
-313.3
-337.98
-321
-363.47
-281.1
-261.48
-297.09
-239.74
-222.99
-226.73
-264.15
-203.35
-241.82
-213.75
-161.18
-195
-182.33
-173.69
-101.73
-109.7
-95.94
-36.91
-110.49
-23.74
0.69
-53.31
-20.65
2.61
42.27
60.81
9.27
28.55
70.99
103.3
65.88
155
137.54
128.5
156.97
150.06
207.67
169.44
174.63
257.69
246.23
221.19
307.24
291.65
269.31
315.85
347.72
380.14
303.01
389.45
320.47
340.04
340.53
386.99
384.42
445.36
435.57
460.21
425.13
476.9
460.6
434.41
477.74
420.17
471.28
457.24
454.43
516.51
529.5
461.43
485.41
471.31
450.12
511.89
509.5
493.92
509.72
525.13
511.64
455.94
480.34
482.73
505.8
508.69
479.78
462.47
467.73
464.18
421.1
456.82
476.52
435.36
406.86
396.36
369.58
427.02
377.18
354.84
357.3
388.93
343.97
341.28
294.52
342.25
304.4
327.08
332.22
287.52
293.59
274.1
275.37
198.81
204.83
215.12
175.29
216.84
166.94
121.1
166.74
162.57
138.05
42.56
95.48
88.19
92.46
46.35
44.67
26.09
-8.79
-56.46
-18.21
-56.09
-116.89
-54.45
-60.3
-156.49
-111.92
-108.58
-183.24
-194.95
-214.18
-228.4
-228.09
-279.8
-286.31
-264.11
-322.59
-289.62
1202.71
-291.5
-346.02
-367.79
-346.34
-366.18
-373.36
-423.09
-422.81
-348.18
-411.19
-460.61
-390.86
-427.78
-397.14
-411.08
-438.55
-416.72
-445.06
-470.86
-447.41
-438.58
-459.17
-512.52
-451.47
-451.82
-506.48
-539.08
-468.57
-498.89
-518.64
-492.63
-543.44
-512.15
-520.98
-452.59
-464.22
-449.76
-497.06
-501.28
-468.34
-430.87
-433.65
-495.23
-455.7
-482.88
-419.37
-438.18
-418.16
-441.96
-401.42
-405.16
-392.11
-409.5
-411.19
-378.22
-385.16
-355.85
-311.85
-352.95
-277.3
-299.11
-252.48
-327.39
-318.32
-285.96
-211.81
-209.97
-205.75
-242.19
-141.82
-193.87
-134.64
-108.93
-152.5
-167.51
-66.29
-62.91
-98.96
-59.44
-40.87
-35.5
-4.96
33.86
61.19
-12.53
34.98
90.58
58.39
133.07
125.53
89.91
135.32
116.32
137.19
202.83
238.5
235.64
228.31
279.09
268.8
239.13
285.5
333.29
272.83
332.51
356.62
370.02
311.38
328.29
374.41
356.18
340.26
347.29
371.73
391.18
433.73
421.55
413.81
404.64
474.68
471.74
479.93
446.36
500.73
510.04
482.71
516.17
464.92
451.51
463.73
448.88
541.14
525.96
498.31
458.27
468.5
542.6
492.48
497.46
537.05
526.92
528.14
494.04
440.68
519.11
468.1
470.77
418.48
415.21
460.28
489.4
475.32
474.45
432.26
378.93
400.69
352.76
340.48
416.22
386.95
327.87
327.55
382.29
285.03
312.26
306.02
1779.42
285.17
238.81
244.19
184.8
229.74
244.36
219.07
170.56
125.48
187.6
165.45
80.84
127.11
141.41
41.8
50.11
29.67
82.53
2.87
-7.67
0.84
-63.73
-39.59
-100.16
-117.16
-56.33
-54.64
-147.99
-110.23
-171.33
-121.95
-207.98
-203.37
-216.61
-171.21
-265.1
-199.94
-282.6
-313.96
-272.73
-304.4
-281.85
-331.72
-314.02
-356.78
-356.73
-376.78
-334.14
-348.46
-401.7
-374.94
-372.89
-413.49
-391.8
-451.46
-438.94
-477.88
-413.65
-443.15
-502.19
-498.24
-442.79
-467.38
-518.29
-509.4
-520.65
-496.5
-474.04
-545.74
-483.85
-481.03
-459.27
-527.94
-532.41
-502.07
-515.88
-487.93
-514.02
-488.32
-522.4
-531.22
-508.85
-430.43
-514.58
-425.53
-450.29
-481.53
-442.83
-432.03
-464.02
-420.82
-379.65
-449.68
-408.81
-364.07
-375.29
-353.84
-322.82
-336.71
-326.38
-323.84
-271.62
-328.24
-317.74
-297.74
-247.55
-297.4
-240.6
-269.33
-254.45
-152.04
-193.83
-188.48
-187.14
-112.04
-76.25
-84.19
-90.86
-98.16
-101.27
-37.08
4.85
-63.17
29.94
41.92
34.51
31.85
89.3
70.95
102.46
93.92
137.62
134.62
192.29
205.29
170.07
140.5
217.73
239.39
213.96
219.91
249.13
253.88
296.46
314.68
321.15
302.22
293.44
345.35
371.25
367.23
375.05
330.58
340.1
413
409.74
386.25
403.02
426.26
424.98
475.24
451.02
420.63
487.94
457.02
506.75
517.92
494.27
498.76
496.38
512.39
494.28
535.37
525.77
498.21
517.09
491.4
541.81
541.8
526.96
460.45
505.01
530.15
459.87
524.79
439.4
468.04
430.03
502.1
413.61
485.73
471.67
421.33
466.07
415.77
382.95
429.34
361.61
345.1
372.7
366.84
332.63
385.39
383.51
350.16
324.97
320.97
283.77
256.01
301.67
300.73
256.09
213.11
177.48
201.18
147.22
164.03
164.76
181.26
83.1
127.76
74.5
118.68
92.94
37.34
23.92
44.16
40.88
-44.76
-20.3
-62.99
-32.71
-116.94
-65.27
-71.6
-84.14
-97.41
-96.07
-167.6
-200.43
-174.03
-163.69
-188.32
-196.7
-266.28
-223.18
-273.01
-266.52
-279.79
-350.65
-363.7
-370.45
-343.76
-385.01
-344.97
-345.71
-398.46
-394.39
-445.02
-443.3
-447.39
-407.89
-433.66
-392.82
-473.79
-427.57
-459.46
-478.89
-437.37
-479.04
-470.2
-532.67
-514.82
-477.7
-506.29
-544.15
-450.54
-492.92
-527.07
-514.34
-458.29
-539.04
-530.51
-532.86
-446.01
-537.51
-510.55
-506.33
-507.46
-503.39
-472.89
-431.93
-504.34
-485.77
-406.73
-457.03
-456.65
-393.49
-441.09
-431.74
-451.14
-395.71
-383.08
-425.81
-407.18
-359.3
-392.15
-378.44
-377.07
-357.49
-277.94
-334.7
-292.66
-249.91
-243.61
-261.98
-247.45
-238.52
-216.94
-191.82
-168.62
-202.04
-156.45
-130.61
-111.85
-87.27
-60.35
-25.91
-19.3
-26.77
8.82
-9.47
1461.76
29.64
26
52.14
41.97
68.37
53.18
109.69
82.15
122.33
117.71
170.95
172.64
205.71
251.34
221.08
248.79
214.02
311.39
238.99
272.44
279.21
341.07
292.81
352.04
328.8
395.85
407.3
340.3
349.51
362.42
442.43
375.4
385.29
387.55
422.3
410.28
461.82
441.95
465.25
447.09
507.58
482.83
466.92
454.95
460.48
465.97
463.67
457.24
547.19
512.91
548.07
484.43
520.45
457.52
455.35
487.42
455.29
454.61
506.22
479.96
442.2
458.02
431.98
500.03
436.87
454.61
492.97
444.94
398.61
429.44
422.27
456.08
371.03
437.51
359.7
406.19
383.16
332.53
312.07
328.09
324.42
267.13
343.49
247.86
240.41
244.66
264.46
237.95
171.52
156.14
181.99
156.13
125.58
104.28
166.97
104.1
105.37
130.45
69.92
49.98
60.49
54.69
31.59
45.68
-57.6
-43.03
-76.06
-107.71
-72.29
-136.65
-81.68
-87.39
-149.92
-191.62
-139.89
-219.59
-222.92
-218.87
-259.25
-193.07
-253.5
-263.25
-266.12
-239.52
-260.63
-356.24
-273.65
-325.52
-372.69
-315.03
-349.21
-387.88
-423.96
-440.12
-355.02
-383.84
-423.96
-400.59
-417.55
-434.24
-443.4
-489.7
-446.52
-484.47
-443.07
-468.8
-451.27
-466.85
-475.54
-497.47
-539.35
-470.48
-518.53
-489.68
-470.48
-546.14
-529.53
-508.35
-461.92
-538.08
-471.19
-524.96
-458.88
-469.86
-476.94
-513.71
1059.57
-446.75
-448.13
-480.27
-487.76
-410.98
-425.7
-462.81
-374.81
-392.49
-407.08
-399.29
-363.53
-420.84
-317.27
-402.87
-326.8
-290.63
-333.25
-316.44
-297.92
-246.06
-283.19
-298.96
-215.77
-190.27
-234.98
-190.88
-189.8
-140.04
-144.35
-180.87
-108.6
-127.69
-117.97
-113.75
-28.09
-104.11
-84.24
-77.9
-35.87
-21.13
-2.69
70.89
8.69
82.1
30.58
83.02
121.23
72.53
169.05
185.8
152.74
136.86
210.4
205.25
168.88
274.18
234.85
278.83
320.27
243.03
337.28
272.43
293.97
304.36
364.59
377.71
387.95
419.55
373.41
427.15
401.24
368.29
468.64
426.5
481.68
466.98
497.58
438.39
483.43
453.85
441.23
467.32
515.76
459.51
491.53
481.12
489.16
511.17
545.91
449.27
504.97
529.34
497.27
477.63
511.91
508.36
514.9
445.87
488.99
533.9
520.25
490.44
458.74
503.25
490.18
439.68
471.83
463.41
411.15
462.82
455.05
414.35
373.78
401.33
398.1
404.58
382.84
362.75
320.42
375.24
277.49
356.25
315.97
334.84
268.12
304.4
270.04
240.81
187.62
169.21
234.97
222.32
203.06
110.93
98.21
115.12
137.01
78.19
45.91
110.94
12.3
47.38
-26.29
20.63
-1.71
-38.1
-57.23
-43.16
-39.9
-71.76
-74.26
-83.54
-167.49
-130.71
-116.35
-216.34
-190.75
-173.84
-209.59
-223.35
-213.98
-266.35
-233.12
-284.42
-249.79
-334.61
-304.5
-331.46
-310.23
-388.54
-407.89
-332.01
-353.04
-383.84
-387.64
-375.35
-459.68
-402.29
-437.1
-436.8
-450.53
-482.51
-458.02
-477.15
-517.01
-486.84
-442.23
-512.06
-449.28
-507.69
-508.97
-507.21
-506.29
-452.32
-501.61
-501.47
-468.39
-476.48
-491.24
-482.11
-510.65
-506.32
-501.86
-521.95
-463.13
-470.08
-497.8
-471.46
-477.93
-451.31
-448.18
-416.01
-407.75
-430.64
-468.84
-433.46
-426.19
-392.1
-392.94
-387.51
-336.16
-395.36
-368.49
-337.46
-288.61
-321.11
-328.17
-273.99
-261.66
-290.59
-247.94
-263.25
-205.52
-220.37
-172.82
-221.47
-151.19
-132.69
-120.38
-120.68
-68.95
-119.62
-127.94
-17.22
-2.27
-55.9
-30.09
-30.56
18.83
55.59
19.44
59.85
23.2
101.87
63.5
154.17
143.24
149.24
176.3
211.48
169.37
216.13
252.1
183.72
266.8
211.02
278.26
283.6
304.8
287.67
283.73
280.99
309.09
319.37
372.56
412.72
331.44
374.3
440
400.88
422.86
437.21
442.04
455.49
463.94
446
463.81
441.5
490.14
444.47
457.05
456.91
448.25
495.15
497.04
505.23
521.48
543.33
526.18
522.56
518.21
464.97
485.38
495.21
464.05
489.03
478.47
452.7
494.75
504.24
500.62
438.25
453.16
470.49
423.67
454.12
422.16
462.93
439.58
375.69
414.69
398.53
406.32
379.11
357.11
346.24
303.41
295.28
328.09
270.27
347.53
1749.81
233.98
233.02
257.42
254.97
234.02
179.29
183.41
191.97
158.82
120.95
140.81
89.8
137.34
100.44
122.1
29.48
73.34
62.7
27.29
-12.48
23.9
0.89
-6.96
-30.94
-39.59
-90.59
-84.7
-82.75
-145.6
-188.94
-174.2
-198.94
-220.4
-238.83
-200.46
-193.12
-242.08
-237.04
-296.4
-231.75
-309.87
-309.94
-343.6
-329.85
-359.5
-318.55
-318.13
-403.42
-348.2
-407.49
-351.45
-383.76
-458.49
-447.21
-480.25
-448.63
-409.29
-465.2
-478.49
-440.29
-450.93
-429.57
-475.57
-499.82
-437.74
-445.01
-487.08
-456.05
-508.84
-504.57
-470.82
-534.75
-501.45
-519.47
-532.87
-546.81
-525.98
-445.65
-458.21
-531.94
-502.83
-447.62
-437.72
-480.89
-466.46
-440.33
-475.58
-463.79
-425.48
-480.63
-432.08
-449.24
-417.66
-406.75
-430.8
-417.63
-327.2
-377.05
-368.51
-306.63
-366.31
-279.51
-319.6
-292.65
-315.25
-287.17
-208
-229.82
-225.63
-261.05
-178.32
-168.22
-214.46
-189.49
-144.41
-87.93
-118.57
-56.04
-56.98
-48.78
-37.89
-59.47
19.62
-6.84
-34.89
60.51
57.42
59.59
95.58
98.7
71.25
98.72
136.12
143.58
194
127.81
186.91
172.26
233.74
264.62
212.78
277.94
295.11
304.94
273.61
307.41
326.09
364.04
383.19
354.26
398.28
354.14
358.36
415.74
405.26
370.07
366.61
375.18
435.61
429.59
451.43
443.47
491.79
459.39
459.88
426.77
1971.18
492.39
533.43
538.5
540.18
473.66
451.08
515.77
481.21
525.41
454.88
519.78
472.59
531.44
504.47
528.92
528.09
471.49
525.23
511.82
457.53
473.28
430.59
473.83
503.1
438.25
485.92
420.57
466.85
384.7
375.69
361.5
391.79
384.84
373.77
396.62
384.04
297.96
359.55
344.16
310.66
323.39
310.82
302.69
289.93
266.56
222.41
168.88
238.38
188.91
153.84
210.24
142.48
173.55
97.83
113.77
52.91
33.77
81.12
4.75
25.73
41.82
-48.74
-63.73
-11.64
-22.38
-52.8
-35.98
-113.74
-60.37
-111.56
-134.41
-104.51
-191.39
-168.39
-230.55
-212.73
-250.51
-200.84
-247.01
-239.41
-298.98
-246.55
-297.41
-270.98
-368.61
-292.72
-329.6
-372.24
-342.3
-333.68
-415.54
-356.01
-409.03
-399.51
-384.89
-464.46
-464.74
-438.76
-450.99
-407.56
-424.08
-514.8
-522.91
-507.04
-452.84
-439.24
-466.11
-451.76
-529.54
-513.97
-484.97
-492.94
-507.91
-504.68
-454.01
-501.93
-495.42
-469.3
-516.55
-510.9
-527.65
-461.71
-444.5
-444.26
-473.11
-423.26
-460.09
-459.86
-479.26
-424.5
-439.29
-459.7
-417.2
-432.54
-386.49
-423.73
-335.1
-390.2
-318.16
-392.59
-312.45
-309.17
-290.18
-283.82
-268.19
-259.82
-293.3
-265.85
-290.31
-244.14
-205.45
-207.92
-176.5
-186.11
-209.26
-127.23
-111.8
-140.61
-114.29
-79.62
-28.56
-24.72
-3.97
7.62
31.22
46.87
-4.71
41.31
28.19
23.73
104.25
102.58
56.19
121.5
147.56
104.82
143.27
206.18
146.13
169.23
236.61
246.27
237.07
283.85
297.47
305.68
326.42
297.58
272.98
311.24
294.71
386.16
380.7
339.12
389.41
427.45
379.15
416.3
414.21
450.38
422.08
431.99
459.33
493.36
466.3
460.89
439.38
486
465.04
525.37
441.6
463.51
450.11
514.03
533.46
512.97
487.53
513.17
512.22
518.19
477.52
536.68
508.98
513.34
510.05
525.38
440.46
475.34
497.57
483.87
435.79
438.88
440.17
490.53
441.49
400.97
458.57
430.3
423.28
367.42
434.95
412.2
406.34
398.31
304.02
319.89
367.99
323.85
269.32
240.33
263.07
215.56
231.55
244.22
231.35
185.73
180.32
148.43
154.59
166.9
151.67
93.57
77.81
80.91
88.7
23.27
84.67
28.62
36.81
16.54
-8.07
-18.5
-72.84
-9.76
-63.69
-63.68
-140.07
-96.02
-156.05
-165.59
-144.21
-132.8
-229.03
-210.22
-233.26
-269.7
-216.47
-237.37
-307.03
-265.47
-332.95
-329.86
-297.01
-360.69
-314.08
-330.95
-344.81
-348.85
-377.94
-410.97
-414.34
-432.8
-444.62
-465.31
-431.33
-425.87
-434.68
-490.16
-433.07
-500.08
-469.7
-426.63
-460.17
-520.17
-455.64
-506.11
-531.29
-497.19
-490.38
-521.51
-489.1
-452.56
-475.36
-471.11
-468.7
-487.06
-493.45
-463.91
-452.75
-518.91
-480.23
-470.04
1033.35
-435.27
-440.9
-481.81
-444.1
-441.72
-478.77
-398.12
-383.66
-463.64
-415.59
-439.19
-427.91
-337.15
-412.73
-368.1
-375.47
-337.36
-291.62
-342.36
-285.09
-328.78
-319.99
-273.93
-273.8
-205.09
-175.11
-219.18
-162.26
-207.02
-145.86
-156.93
-150.47
-88.96
-142.79
-91.01
-71.2
-26.15
-69.96
-63.49
23.58
-12.76
9.1
1.27
-6.49
26.79
63.43
124.77
80.7
108.05
135.07
134.41
200.59
182.04
174.54
162.21
252.2
271.39
268.39
269.27
291.78
300.78
335.09
336.05
286.8
312.65
387.73
325.98
403.61
385.72
380.4
433.62
359.65
360.9
385.96
442.08
393.33
409.1
474.72
431.31
504.39
420.97
422.26
437.02
475.83
440.13
490.88
445.35
524.05
490.67
480.43
464.75
493.98
480.36
481.99
514.78
488.71
455.34
456.9
500.1
459.08
456.82
490.87
512.87
474.56
451.82
417.19
461
422.01
414.68
452.05
462.18
420.12
392.09
383.3
406.59
423.6
384.16
387.6
353.07
329
299.11
352.49
295.97
346.11
240.22
245.01
280.97
285.25
203.61
251
201.75
204.44
165.39
134.11
172.18
160.83
80.08
69.71
140.75
118.53
97.11
79.54
-1.18
-8.03
-21.64
36.23
5.06
-84.12
-19.39
-78.89
-59.97
-60.45
-158.92
-153.28
-175.99
-121.46
-181.86
-138.13
-245.72
-164.3
-211.83
-265.87
-233.82
-257.35
-245.41
-272.92
1227.05
-292.66
-335.45
-375.27
-314.49
-360.96
-324.14
-360.29
-417.87
-371.92
-367.83
-375.02
-469.89
-387.84
-436.53
-457.35
-411.15
-422.43
-510.08
-469.04
-515.35
-494.34
-471.14
-462.47
-483.78
-483.66
-503.62
-513.45
-537.51
-450.54
-452.34
-547.41
-509.91
-509.79
-460.63
-501.98
-482.92
-485.41
-499.85
-493.74
-441.72
-475.09
-519.41
-423.74
-499.85
-470.97
-457.81
-464.85
-478.7
-471.81
-384.88
-369.22
-388.72
-357.72
-368.99
-417.89
-320.41
-337.84
-333.91
-317.77
-290.91
-286.53
-330
-234.26
-247.22
-269.06
-202.21
-245.11
-260.97
-166.84
-177.29
-209.95
-137.01
-122.51
-178.24
-74.85
-105.99
-38.77
-22.02
-57.59
-28.29
10.72
30.27
15.5
57.35
24.96
22.47
92.07
75.9
69.27
111.45
125.92
96.6
166.01
179.62
194.34
195.57
213.11
222.9
210.5
215.49
241.48
283.98
334.14
327.02
293.04
361.23
289.74
359.66
324.58
389.39
408.61
398.81
375.15
386.13
389.68
433.04
431.99
419.27
409.29
443.7
412.56
510.35
444.31
460.28
465.01
530.88
498.36
499.49
462.65
521.58
544.35
459.98
513.51
462.36
492.79
515.55
530.5
528.83
463.77
506.58
484.79
474.96
490.93
439.7
514.51
468.5
441.53
488.34
422.67
422.67
401.63
448.09
453.25
405.38
456.53
437.67
372.62
394.93
384.82
318.13
382.78
340.27
344.43
322.25
303
278.42
285.03
266
289.26
235.45
277.2
182.18
196.39
160.36
140.03
144.89
128.34
92.53
161.28
97.15
130.6
72.35
34.26
14.21
51.4
-3.74
-32.8
10.27
-32.51
0.43
-22.32
-104.6
-86.18
-139.2
-147.99
-121.66
-134.77
-149.14
-187.93
-146.39
-228.67
-177.12
-220.64
-221.48
-249.68
-276.41
-326
-328
-345.11
-290.76
-309.97
-353.98
-350.03
-332.97
-387.82
-427.17
-442.64
-399.91
-437.17
-445.78
-442.64
-398.34
-440.76
-466.12
-433.02
-428.85
-474.61
-459.52
-519.77
-472.06
-475.08
-529
-453.25
-467.13
-456.31
-450.25
-497.56
-508.9
-481.34
-458.97
-468.44
-523.88
-472.37
-537.31
-458.03
-526.52
-518.16
-442.71
-467.42
-505.7
-505.42
-452.4
-418.53
-431.44
-442.71
-444.93
-411.99
-389.12
-377.65
-358.3
-388.22
-396.07
-345.88
-412.49
-344.1
-392.02
-377.7
-299.03
-316.24
-269.48
-254.7
-231.95
-221.35
-289.46
-278.3
-211.94
-186.08
-226.31
-209.75
-157.19
-159.25
-121.33
-167.23
-142.11
-68.48
-112.88
-71.01
-90.19
-38.18
-5.94
-11.56
9.8
-0.94
60.47
69.97
121.7
84.12
117.22
146.61
170.02
120.51
143.37
172.33
201.46
157.04
223.15
222.99
294.89
250.37
301.1
284.44
345.82
295.34
325.14
361.52
330.25
337.89
376.29
403.08
404.67
383.27
352.61
437.45
436.27
458.94
439.21
459.47
407.31
483.42
433.72
437.06
424.34
1941.69
482.14
472.76
466.21
479.13
536.33
496.26
530.77
470.53
543.23
462.28
461.14
536.98
477.51
489.91
518.23
456.58
506.85
476.95
480.05
445.28
452.81
502.98
481.36
435.64
483.23
419.9
440.89
409.04
394.85
384.95
353.95
368.35
385.49
349.42
395.89
390.34
364.81
369.82
352.89
284.27
292.48
270.47
244.88
248.38
296.03
240.52
247.23
202.71
210.82
200.68
155.49
187.85
101.33
142.8
98.93
106.19
45.74
15.11
84.86
33.05
35.27
-27.24
-44.08
4.87
-1.81
-14.23
-67.14
-99.86
-80.48
-92.72
-174.4
-187.42
-126.57
-176.27
-177.9
-192.69
-175.8
-268.12
-224.62
-259.62
-225.05
-316.2
-277.06
-310.25
-337.53
-331.58
-332.18
-378.92
-371.03
-333.65
-401.62
-384.57
-358.63
-378.23
-466.87
-423.82
-385.58
-484.84
-454.67
-420
-420.21
-443.32
-520.39
-456.67
-517.43
-480.68
-442.94
-508.93
-521.79
-525.15
-509.27
-514.11
-455.86
-524.79
-474.76
-538.24
-524.3
-541.95
-542.58
-446.01
-502.12
-440.23
-458.56
-438.55
-454.74
-434.21
-513.02
-411.5
-498.07
-426.13
-442.47
-450.85
-390.86
-406.99
-357.58
-385.24
-425.04
-373.62
-354.02
-341.06
-386.15
-381.75
-371.41
-348.7
-349.16
-291.35
-310.49
-226.36
-289.01
-262.16
-195.94
-217.69
-213.28
-189.11
-185.18
-158.29
-140.9
-144.29
-159.29
-110.55
-45.7
-49.1
-56.99
-9.99
-19.91
41.4
1503.96
57.06
40.29
67.88
90.5
102.51
113.09
113.14
139.96
191.32
141.94
217.5
226.8
181.22
209.68
256.75
245.4
247.15
243.7
290.44
338.52
270.84
337.27
295.25
313.54
323.76
383.13
390.91
334.67
390.3
421.44
453.53
389.02
440.19
452.22
413.74
414.21
415.91
503.55
468.75
493.9
455.79
490.55
486.15
472.91
493.2
511.72
496.73
537.2
481.92
459.87
454.26
477.24
511.5
532.21
504.65
534.96
484.34
485.95
463.49
485
472.46
495.09
470.53
497.62
486.37
478.35
490.64
410.02
469.71
383.83
386.24
394.02
370.92
409.72
352.03
342.68
383.77
380.97
330.97
349.98
351.3
325.79
321.24
276.11
301.9
288.98
251.71
191.21
214.67
218.57
185.2
160.13
107.44
118.11
147.47
112.04
94.61
86.57
39.77
18.9
49.1
-3.43
17.64
40.24
20.63
-58.67
-83.37
-100.72
-42.87
-61.53
-80.14
-133.8
-112.73
-143.35
-167.26
-150.91
-234.35
-169.55
-177.15
-280.75
-223.13
-285.09
-249.44
-327.06
-348.68
-314.84
-358.43
-362.06
-385.72
-342.57
-418.43
-390.42
-423.33
-419.83
-425.16
-448.8
-415.38
-464.75
-422.3
-408.1
-403.18
-483.96
-418.61
-495.97
-464.15
-517.96
-497.76
-481.72
-475.82
-531.62
-519.39
-468.77
-465.66
-492.6
-539.19
-508.27
-486.28
-521.83
-473.27
-468.69
-520.23
-487.47
-468.09
-467.84
-506.01
-498.41
-497.99
-479.93
-411.95
-420
-397.97
-422.89
-416.08
-397.37
-399.86
-399.06
-434.35
-366.95
-389.44
-418.24
-331.89
-344.05
-339.1
-333.57
-326.3
-271.04
-292.49
-281.76
-290.41
-279.35
-236.54
-186.85
-204.53
-239.47
-144.9
-177.54
-197.58
-140.52
-148.29
-153.34
-50.9
-112.78
-89.82
-66.21
-59.15
12.41
20.3
13.85
32.36
15.08
75.58
25.22
64.39
66.48
97.14
111.44
111.34
179.57
171.28
225.6
225.17
198.72
188.48
280.26
246.35
256.28
237.81
307.98
269.09
342.79
325.28
357.64
336.04
345.32
321.52
412.54
363.96
378.23
436.42
463.12
411.85
391.44
476.07
467.37
462.4
496.76
447.36
422.84
500.52
496.69
477.86
466.52
514.23
521.68
464.01
541.79
449.02
493.18
479.83
451.75
470.57
455.12
458.13
451.14
484.78
482.88
527.06
492.1
503.69
486.56
448.29
469.3
466.59
419.11
399.11
400.73
414.38
424.64
416.3
414.81
404.33
394.5
380.43
368.95
320.95
354.23
389.1
290.82
348.12
331.96
305.39
317.19
235.19
235.88
239.41
220.83
208.42
197.14
217.97
171.49
173.93
162.37
96.62
161.28
71.04
55.74
81.34
36.53
82.83
-7.37
-4.31
-1.21
31.76
-4.14
-36.99
-97.7
-71.22
-122.2
-57.92
-141.46
-103.14
-162.2
-212.62
-182.04
-169.6
-227.51
-178.47
-210.95
-285.39
-294.35
-224.81
-251.38
1179.31
-262.11
-336.01
-311.15
-336.65
-389.75
-337.11
-363.35
-398.66
-366.89
-357.01
-442.91
-417.91
-390.83
-460.28
-466.29
-437.74
-448.15
-512.21
-499.54
-459.65
-487.16
-467.28
-510.71
-456.4
-527.65
-536.21
-527.58
-541.5
-548.02
-537.99
-473.57
-492.77
-470.98
-469.61
-542.58
-467.84
-482.25
-487.03
-466.41
-514.39
-453.05
-500.49
-491.07
-489.45
-505.49
-427.54
-491.9
-477.16
-444.49
-452.15
-419.3
-416.8
-432.88
-349.73
-324.23
-319.06
-323.34
-373.18
-370.87
-270.08
-351.26
-302.01
-237.17
-281.99
-266.87
-281.14
-206.86
-227.95
-157.96
-236.82
-142.51
-116.35
-184.08
-140.53
-168.81
-120.45
-116.54
-102.52
-32.61
-59.1
8.71
-43.07
-2.59
-6.62
66.36
38.5
53.63
122.32
134.15
80.68
158.21
111.01
147.93
149.38
191.45
178.2
184.39
195.55
236.75
205.54
283.9
266.27
314.36
251.15
280.43
295.33
332.79
383.7
344.18
338.53
413.89
338.83
430.74
442.04
428.47
374.3
379.13
461.07
415.18
453.02
503.92
426.83
475.76
476.42
494.19
458.14
449.98
460.84
484.83
456.36
518.03
474.2
477.07
454.87
510.63
458.25
492.28
511.94
527.19
499.38
505.2
510.05
518.62
500.23
491.29
511.22
438.34
422.98
428.37
414.66
422.34
394.31
403.04
444.72
455.58
360.46
435.95
364.32
372.24
354.87
390.24
381.13
363.56
296.91
352.02
329.54
1811.38
254.15
231.14
276
215.55
207.57
206.75
203.66
161.03
198.3
144.66
186.02
130.7
148.08
54.75
97.5
79.43
91.53
17.96
-4.6
38.46
-12.11
-10.16
-72.92
-94.11
-107.49
-116.83
-93.74
-91.4
-116.59
-180.22
-115.24
-185.56
-214.07
-213.65
-235.56
-204.3
-193.42
-208.19
-304.3
-263.37
-277.79
-326.21
-358.21
-342.82
-338.33
-366.59
-384.82
-385.31
-401.07
-355.71
-417.96
-434.46
-448.3
-387.83
-469.18
-412.28
-460.36
-485.86
-424.66
-462.09
-500.57
-466.66
-438.59
-512.28
-447.65
-528.19
-481.51
-536.57
-451.8
-500.64
-454.06
-530.01
-491.08
-492.16
-521.76
-521.03
-453.89
-461.65
-447
-442.38
-486.93
-506.72
-460.99
-471.39
-467.87
-504.87
-462.36
-456.82
-469.18
-387.52
-426.48
-396.25
-400.62
-350.99
-405.92
-331.9
-332.26
-405.3
-313.19
-299.94
-283.28
-334.66
-288.02
-272.83
-229.4
-239.46
-278.89
-194.59
-224.98
-168.32
-150.19
-163.49
-162.78
-152.16
-148.72
-98.62
-101.37
-75.59
-43.82
-98.53
-85.68
-53.63
-27.97
4.4
36.13
34.33
65.45
15.77
45.49
61.44
109.05
73.8
96.84
185.55
146.53
207.01
236.37
186.04
187.2
201.1
222.16
204.33
265.1
249.53
321.65
350.13
305.95
283.98
384.39
391.84
346.03
349.17
377.02
380.51
434.68
430.99
432.46
445.88
432.26
448.15
493.9
409.03
505.08
441.83
497.33
497.99
482.94
456.06
462.71
499.83
501.01
475.38
537.96
547.5
520.36
540.19
522.67
517.23
504.18
453.53
510.19
531.65
450.72
506.45
442.88
487.51
514.16
512.43
498.25
445.87
447.02
404.8
389.24
417.94
430.07
386.51
363.78
431.52
410.64
374.84
341.1
376.76
309.54
292.84
287.23
264.86
261.07
268.17
265.03
262
255.77
227.26
269.13
246.9
222.27
169.35
218.01
129.08
115.5
113.98
80.69
81.5
96.07
81.42
75.14
17.51
-3.27
56.19
29.24
-26.01
-6.23
-30.01
-26.52
-113.22
-128.11
-145.88
-154.33
-179.64
-151.12
-198.21
-233.83
-220.1
-231.02
-239.98
-259.18
-278.55
-294.59
-316.13
-289.57
-325.45
-307.53
-298.61
-353.24
-384.96
-402.51
-405.74
-335.71
-375.3
-356.39
-432.18
-427.2
-469.62
-439.5
-423.55
-416.69
-441.57
-424.54
-420.12
-445.41
-485.22
-491.93
-497.58
-508.07
-519.06
-498.02
-508.84
-476.89
-469.89
-466.38
-547.18
-532.48
-514.43
-493.15
-505.56
-539.8
-493.79
-476.3
-445.44
-531.36
-501.34
-516.75
-470.47
-498.02
-503.41
-483.03
-447.07
-414.44
-444.95
-445.51
-402.12
-422.56
-363.57
-433.85
-344.59
-405.11
-398.13
-337.23
-387.58
-301.93
-313.47
-348.05
-273.13
-311.99
-298.6
-292.04
-286.33
-258.66
-224.21
-244.4
-152.55
-217.23
-146.24
-170.05
-80.83
-129.74
-67.42
-66.56
-38.15
-103.46
-44.3
-15.86
2.17
1477.03
48.44
61.58
76.23
103.57
86.4
107.94
118.94
103.8
96.26
202.56
198.33
204.95
152.46
208.01
256.28
251.7
289.51
276.57
301.29
244.73
339.2
358.03
333.26
315.23
372.1
404.94
404.37
346.72
415.6
388.93
358.12
407.39
403.05
461.4
455.68
394.92
421.15
456.13
431.61
426.94
461.27
503.73
450.79
490.66
444.08
461.32
508.93
527.96
506.91
467.72
482.1
458.64
533.56
548.56
502.95
545.8
508.05
478.1
529.31
475.19
442.69
490.06
512.56
491.28
509.13
471.96
473.86
404.46
482.97
433.71
385.78
415.94
360.99
377.06
420.32
413.97
398.76
332.67
334
349.48
301.92
354.48
290.39
295.83
234.33
296.07
213.83
269.42
187.31
229.15
177.18
175.62
194.59
162.74
168.91
124.4
134.45
103.46
28.09
51.08
13.89
-18.22
-35.95
-39.1
23.06
-82.62
-17.61
-69.09
-96.33
-103.66
-97.41
-105.14
-174.27
-195.97
-170.09
-224.5
-212.58
-226.7
-261.92
-246.59
-201.62
-302.9
-321.06
-241.27
-323.41
-275.45
-335.8
-318.52
-330.98
-369.4
-324.58
-417.9
-350.68
-375.19
-426.35
-461.51
-441.74
-413.87
-408.47
-395.67
-417.32
-408.06
-439.06
-512.67
-489.71
-488.77
-438.12
-517.46
-483.26
-520.33
-466.34
-487.27
-496.9
-451.72
-460.09
-479.77
-452.72
-542.27
-539.03
-449.55
-469.83
-472.14
-522.39
-522.96
-446.38
-441.46
1010.5
-514.9
-460.49
-419.73
-437.21
-474.31
-471.3
-448.41
-417.89
-440.94
-427.37
-439.42
-339.29
-372.09
-354.76
-303.67
-294.84
-346.75
-309.77
-281.8
-299.34
-271.84
-245.69
-286.23
-269.57
-193.2
-260.1
-178.43
-217.34
-193.97
-170.18
-130.88
-122.5
-97.32
-118.82
-61.07
-42.11
-43.47
-36.71
-19.63
23.68
19.34
-30.32
12.03
0.69
88.9
75.7
40.52
92.47
103.87
164.71
186.59
113.41
176.82
191.38
178.67
168.71
187.92
234.19
213.98
298.63
311.04
294.46
293.46
361.47
321.62
331.01
324.7
332.15
355.85
375.46
348.91
388.26
389.49
390.15
410.32
445.24
455.38
465.58
429.25
419.48
466.76
469.61
437.75
449.44
534.74
517.85
531.07
508.74
462.65
511.92
542.95
469.18
502.94
494.47
537.59
471.03
477.76
457.23
463.24
477.69
495.78
473.09
510.17
463.43
507.73
510.31
490.47
494.13
396.08
394.55
386.69
431.58
365.28
453.2
356.53
375.27
400.76
360.23
368.05
306.4
346.65
344.66
346.96
313.96
250.2
288.94
233.35
229.92
269.38
235.35
223.04
170.09
177.52
175.02
169.92
152.25
106.26
118.36
98.41
116.24
101.59
2.74
35.68
60.93
7.25
14.2
-67.95
-90.03
-17.6
-63.27
-86.66
-145.49
-103.39
-121.28
-186.89
-171.75
-142.62
-150.38
-175.93
-247.21
-242.12
-263.67
-259.82
-240.93
-293.54
-307
-343.16
-339.45
-288.7
-352.34
-372.32
-383.26
-348.02
-430.92
-359.05
-376.85
-430.8
-440.37
-384.76
-404.89
-430.86
-465.88
-438.8
-452.44
-492.75
-428.76
-451.32
-498.43
-499.95
-500.29
-500.13
-446.43
-476.44
-452.11
-483.71
-545.73
-521.2
-490.57
-479.47
-540.99
-484.3
-491.48
-540.37
-533.42
-514.85
-477.91
-434.87
-503.16
-426.12
-494.51
-419.25
-401.68
-446.99
-400.38
-401.72
-471.32
-427.79
-445.43
-385.68
-404.93
-412.27
-411.92
-341.11
-352.45
-360.26
-327.93
-354.67
-304.79
-270.4
-236.03
-230.86
-230.17
-237.28
-260.97
-176.54
-178.2
-197.6
-202.4
-110.89
-181.07
-149.84
-86.64
-106.45
-73.37
-111.9
-33.9
0.69
-2.39
-33.49
29.69
73.65
2.91
56.5
90.3
57.69
105.92
66.52
83.65
149.85
178.78
123.1
172.28
233.22
241.14
233.35
202.44
245.43
242.74
253.5
311.86
318.67
286.38
311.46
356.72
374.11
343.95
377.91
402.03
428.49
387.55
358.51
434.42
395.69
416.87
435.58
427.83
460.19
471.08
465.12
520.35
482.63
528.29
467.53
466.98
536.27
445.33
473.42
515.59
456.18
500.43
514.29
484.9
524.36
458.06
479.87
492.54
449.19
522.75
460.13
477.13
486.7
483.42
470.04
488.36
437.91
473.32
463.95
472.15
461.72
415.34
443.73
428.02
361.29
429.41
422.76
349.74
344.92
325.67
381.13
309.01
342.78
284.43
1743.71
283.41
281.25
232.19
203.72
241.34
184.49
187.98
160.64
146.57
112.2
92.38
105.73
138.21
64.63
87.9
41.82
27.34
85.67
69.22
15.08
11.58
-49.86
-19.59
-2.83
-103.69
-95.98
-76.31
-130.69
-162.71
-152.66
-192.82
-171.48
-135.34
-166.25
-188.92
-223.18
-287.31
-222.86
-305.63
-253.87
-338.69
-321.56
-329.54
-310.49
-327.83
-376.43
-355.89
-332.76
-381.82
-392.56
-358.14
-360.9
-419.75
-455.21
-425.15
-415.1
-419.77
-446.26
-475.6
-474.92
-452.95
-523.24
-442.79
-519.23
-446.53
-468.41
-534.19
-526.39
-460.04
-538.52
-526.3
-503.38
-505.02
-468.04
-464.74
-534.58
-497.15
-467.27
-491.38
-440.91
-476.79
-488.05
-466.08
-517.75
-432.41
-431.58
-466.1
-397.82
-459.44
-444.87
-456.47
-421.8
-453
-444.02
-407.01
-423.55
-326.03
-331.31
-344.12
-303.25
-278.35
-311.51
-274.22
-243.38
-252.25
-245.9
-288.76
-257.28
-178.28
-256.01
-196.91
-152.12
-155.84
-147.99
-189.62
-130.66
-129.23
-63.7
-89.44
-27.96
-34.59
-86.98
-17.06
0.05
32.5
-18.22
24.53
5.64
96.64
50.29
54.9
139.6
110.26
132.23
151.52
196.42
207.31
177.88
209.43
254.01
231
214.3
274.15
286.79
288.44
269.76
314.15
362.57
298.44
383.6
350.9
416.55
395.2
394.94
390.29
392.74
447.69
413.59
420.33
485.55
433.24
456.86
503.77
501.41
502.64
518.03
1953.62
466.86
472.44
481.54
469.58
458.15
484.2
527.68
467.64
510.57
519.02
540.12
471.33
458.84
521.98
502.62
460.26
494.74
465.21
489.8
511.19
478.51
451.45
463.94
454.71
438.6
443.92
472.89
407.51
462.79
455.09
385.39
417.61
399.07
363.97
353.27
380.08
376.2
313.27
308.66
259.89
301.63
266.67
229.62
223.89
215.91
216.02
199.33
180.68
180.21
133.71
197.25
171.54
113.01
90.53
136.27
75.19
34.77
33.09
31.77
4.47
6.68
-46.2
-56.36
-78.04
-30.25
-68.88
-47.02
-89.21
-108.07
-92.17
-168.39
-140.28
-175.08
-177.68
-218.45
-168.15
-269.59
-246.46
-271.1
-299.5
-266.7
-272.55
-323.33
-289.96
-370.81
-318.38
-325.9
-325.49
-378.06
-358.77
-372.34
-444.14
-432.6
-371.85
-379.12
-477.54
-392.67
-493.3
-492.94
-475.35
-453.52
-445
-439.88
-464.25
-523.29
-459.31
-477.29
-497.36
-518.16
-475.46
-465.27
-489.74
-526.39
-546.49
-493.78
-504.47
-523.05
-517.85
-516.02
-491.56
-469.83
-515.25
-460.25
-505.92
-457.08
-458.74
-429.91
-438.29
-464.03
-393.28
-450.63
-378.76
-447.28
-366.26
-394.39
-394.67
-410.12
-342.29
-383.03
-387.54
-325.48
-363.4
-288.68
-281.91
-262.69
-282.08
-238.6
-218.08
-293.41
-280.79
-220.87
-190.18
-210.24
-138.53
-176.65
-158.89
-113.16
-78.55
-153.16
-42.22
-72.92
-76.37
-39.52
5.52
-10.77
1526.22
60.43
-15.58
62.52
46.4
81.51
43.3
71.9
77.85
101.87
163.23
123.52
157.77
149.34
209.72
206.17
205.65
286.66
293.97
252.83
327.1
326.78
315.36
284.16
361.47
354.62
386.17
395.66
407.52
413.4
418.67
386.86
399.68
441.47
400.19
473.17
417.98
409.1
420.29
491.4
472.16
448.74
485.19
479.9
458.1
507.81
504.33
499.2
503.02
547.17
464.77
455.71
519.94
481.89
458.6
520.12
451.25
468.61
513.88
533.86
525.21
478.27
465.52
467.12
517.81
432.07
477.94
492.08
417.08
407.43
466.03
384.31
428.66
396.52
408.15
342.18
346.83
410.96
401.81
385.07
309.79
357.99
281.01
279.86
319.79
289.61
271
208.87
215.42
171.42
211.91
227.67
174.97
126.73
101.46
149.97
101.77
156.22
70.34
116.49
37.68
36.54
46.82
-25.89
40.68
30.41
-23.13
-5.14
-103.8
-72.86
-57.95
-77.46
-68.77
-94.02
-158.71
-190.45
-203.33
-176.54
-164.24
-174.15
-264.44
-283.65
-275.02
-289.35
-277.13
-295.89
-351.52
-334.73
-301.81
-359.1
-390.17
-348.3
-360.56
-401.51
-399.66
-400.26
-446.38
-452.49
-390.57
-428.17
-407.34
-419.71
-474.11
-440.59
-441.27
-499.68
-461.34
-523
-511.35
-520.36
-444.33
-463.78
-489.1
-505.57
-509.04
-540.97
-507.68
-462.07
-533.24
-536.45
-496.38
-514.96
-449.16
-517.56
-534.42
-476.44
-445.88
1000.85
-454.27
-500.63
-502.11
-444.63
-478.14
-483.2
-395.91
-413.56
-444.94
-404.64
-359.75
-435.19
-344.21
-368.32
-341.48
-315.6
-288.63
-278.83
-277.78
-346.36
-258.55
-288.32
-239.4
-204.25
-234.7
-254.25
-222.1
-245.42
-193.57
-166.27
-150.26
-155.27
-147.2
-118.31
-77.5
-118.05
-69.74
-49.41
-20.31
-42.98
-22.96
59.74
-2.77
47.82
37.11
68.08
120.69
113.37
126.6
169.05
108.26
177.38
219.24
139.47
183.88
200.14
276.05
214.87
204.05
249
317.64
338.27
322.05
287.92
282.77
314.74
329.06
338.15
361.71
350.27
407.12
369.08
414.21
462.42
405.8
477.76
479.81
429.59
501.92
461.88
490.39
454.8
461.8
447.99
500.2
492.22
520.06
457.64
493.03
526.5
464.68
455.79
471.74
531
514.35
539.59
487.08
494.33
533.67
441.13
515.37
532.78
502.85
449.72
474.98
480.76
440.6
494.63
419.93
434.07
412.11
392.34
397.49
361.97
386.65
382.9
381.91
358.3
381.79
363.38
346.2
366.49
340.83
333.26
249.53
244.53
313.65
291.27
269.65
195.97
228.49
187.04
152.37
199.03
137.67
154.93
104.85
135.97
64.87
33.06
86.75
90.79
82.42
58.23
14.49
-19.58
-56.24
-69.34
-92.69
-72.63
-104.39
-106.04
-64.91
-83.4
-93.05
-171.66
-193.8
-160.46
-173.91
-184.09
-252.25
-258.86
-255.7
-274.45
-228.9
-246.87
1167.19
-359.93
-337.83
-308.68
-338.2
-353.1
-382.85
-355.28
-433.6
-368.36
-455.35
-384.29
-457.46
-457.66
-445.58
-447.19
-414.34
-442.69
-499.54
-462.66
-510.49
-479.11
-521.28
-485.23
-456.98
-453.43
-495.09
-466.81
-541.68
-524.52
-540.26
-462.63
-451.64
-481.13
-527.39
-458.58
-450.1
-495.69
-523.58
-513.02
-431.8
-471.95
-474
-488.26
-466.9
-473.27
-398.17
-419.13
-395.98
-418.92
-434.1
-361.07
-380.89
-390.87
-336.25
-325.97
-319.17
-341.46
-366.9
-339.46
-353.38
-255.11
-340.9
-316.4
-304.94
-294.22
-284.7
-219.43
-224.22
-176.03
-139.04
-155.07
-174.6
-95.35
-133.43
-116.85
-126.51
-69.47
-57.05
-68.51
-16.69
-13.69
37.47
45.66
-29.04
49.77
33.71
86.19
87.1
88.83
96.86
132.85
110.82
110.53
146.95
154.48
194.72
254.39
187.18
261.24
276.8
264.1
301.46
246.96
273.32
275.95
348.19
287.14
303.05
333.8
342.84
386.98
432.37
429.73
372.62
409.26
456.55
385.69
449.53
411.27
496.83
442.81
418.36
451.82
458.26
521.22
437.99
467.65
442.26
537.95
522.02
531.85
535.96
494.96
464.41
493.24
501.93
532.65
498.68
512.25
507.04
496.34
522.04
440.91
449.53
494.68
431.89
453.46
506.47
440.98
468.33
485.16
427.93
443.95
462.45
362.33
375.2
406.95
378.91
422.1
336.69
360.39
329.88
307.92
319.09
326.94
1822.75
313.76
240.44
281.87
271.95
252.91
182.68
227.3
205.86
135.93
141.22
138.88
104.5
110.1
131.73
71.81
87.55
81.22
64.67
-16.88
-19.3
38.52
32.28
-6.13
-51.39
-24.12
-28.53
-48.7
-126.96
-128.58
-146.6
-130.28
-126.19
-158.09
-164.96
-214.64
-188.81
-276.34
-265.97
-280.79
-224.75
-274.97
-293.5
-349.41
-307.58
-296.98
-311.12
-364.39
-389.65
-330.36
-363.43
-426.45
-437.28
-368.5
-447.02
-455.21
-423.71
-401.12
-498.75
-418.74
-420.79
-505.31
-447.04
-514.52
-477.48
-489.18
-530.76
-459.72
-470.84
-465.75
-451.43
-460.5
-480.55
-484.25
-456.37
-489.27
-515.53
-518.2
-502.44
-481.66
-495.11
-448.45
-445.76
-516.03
-439.19
-419.86
-490.95
-487.76
-454.69
-432.02
-435.11
-463.56
-459.85
-438.96
-385.51
-402.22
-386.97
-400.36
-353.51
-394.1
-304.47
-288.99
-336.93
-331.94
-334.93
-253.02
-232.41
-283.91
-295.06
-232.36
-216.28
-159.65
-197.29
-193.97
-171.04
-140.71
-135.48
-127.64
-102.95
-113.31
-103.7
-18.85
-16.53
-75.58
-57.35
-47.5
57.95
58.77
50.84
33.66
96.07
44.67
89.83
79.52
125.07
194.46
211.07
177.37
160.79
250.68
213.33
228.17
228.79
252.26
289.23
267.94
247.87
320.47
293.37
326.28
298.59
400.49
411.52
343.77
373.58
429.95
443.62
384.67
433.72
398.73
416.18
463.99
485.34
408.2
473.54
453.05
462.54
1954.66
509.93
476.15
501.14
482.67
518.65
459.39
461.86
544.26
542.68
544.18
508.63
497.53
481.52
492.04
467.91
498.4
538.85
516.61
488.54
482.72
432.68
437.54
507.42
483.12
415.51
492.38
402.96
428.02
388.79
460.66
417.98
366.45
396.89
389.68
357.86
395.04
307.97
343.28
305.25
315.92
273.03
283.35
259.54
242.29
248.19
214.44
250.96
173.49
172.33
156.08
193.79
200.45
152.14
88.54
101.77
110.59
86.45
48.24
64.74
27.37
23.37
-20.4
-17.23
-26.22
-40.02
-49.27
-68.9
-95.95
-138.3
-89.57
-113.4
-169.54
-174.29
-138.22
-211.58
-233.21
-186.89
-212.82
-258.19
-291.47
-259.4
-235.49
-259.95
-338.04
-357.35
-356.88
-320.98
-348.71
-352.46
-339.88
-367.11
-390.86
-435.3
-457.84
-431.88
-443.05
-473.59
-395.01
-412.89
-468.16
-422.62
-501.31
-518.93
-515.94
-449.03
-440.13
-520.97
-448
-514.85
-466.95
-496.65
-466.63
-453.33
-529.41
-481
-466.14
-505.22
-539.02
-531.81
-489.97
-537.94
-517.88
-468.45
-432.32
-504.13
-504.16
-493.27
-475.27
-430.95
-401.73
-453.23
-389.95
-400.45
-411.7
-386.22
-364.35
-413.42
-372
-340
-325.8
-342.94
-310.2
-352.43
-271.91
-266.69
-309.5
-298.65
-221.02
-292.1
-205.65
-192.15
-210.13
-194.18
-183.49
-151.95
-189.83
-175.99
-119.48
-158.05
-98.45
-41.59
-32.44
-79.97
-39.86
-48.88
-14.11
1480.4
67.19
86.72
79.4
83.15
114.08
110.18
117.39
154.46
188.92
145.89
195.1
197.36
185.6
239.77
251.61
217.68
244.3
238.14
232.47
280.3
352.09
270.67
315.24
315.52
377.82
389.47
368.03
428.53
393.19
438.74
359.99
417.15
447.36
476.36
467.99
474.87
437.54
508.69
427.28
441.47
505.98
461.41
514
449.51
447.1
487.42
481.63
495.29
493.68
547.09
548.9
499.96
537.16
457.82
527.53
500.04
468.96
534.99
496.53
531.4
433.43
521.23
512.56
492.95
490.62
473.23
437.57
472.95
447.19
425.95
443.1
412.96
406.45
388.49
366.86
396.06
384.65
339.34
356.27
332.52
293.11
271.33
338.65
255.82
235.6
268.5
242.78
268.54
224.08
216.48
183.16
202.39
178.77
92.78
107.93
123.44
97.06
98.31
72.61
82.41
42.42
-16.38
-6.92
-31.91
-12.82
-59.45
-54.82
-32.53
-113
-96.5
-97.65
-171.69
-132.71
-105.94
-202.36
-157.47
-203.73
-178.2
-267.1
-277.66
-288.9
-246.85
-290.27
-251.49
-334.23
-351.49
-345.44
-314.92
-304.44
-353.41
-407.45
-374.98
-355.15
-429.71
-360.75
-370.98
-400.9
-450.54
-404.96
-480.63
-490.1
-471.46
-476.89
-510.46
-487.27
-432.48
-479.38
-523.41
-529.03
-470.19
-531.76
-449.15
-498.88
-524.22
-475.22
-545.53
-493.51
-543.43
-462.71
-534.27
-493.49
-524.11
-511.65
-502.16
-512.71
1059.73
-453.54
-487.26
-412.26
-480.46
-397.7
-410.4
-439.44
-464.62
-371.9
-374.49
-447.57
-347.39
-391.03
-378.84
-325.35
-322.57
-369.13
-323
-281.55
-282.02
-295.27
-292.65
-307.11
-227.5
-191.32
-182.17
-167.07
-166.3
-160.33
-160.95
-150.14
-181.46
-162.59
-109.69
-105.18
-107.75
-36.74
-51.9
-47.53
2.6
7
-10.56
65.37
-0.36
62.6
49.76
80.66
127.74
76.32
91.18
111.04
147.88
167.84
141.06
146.15
257.73
270.64
242.68
295.58
273.13
300.96
238.78
317.54
293.18
362.81
329.37
340.01
360.84
412.84
412.78
337.61
394.79
415.1
421.12
402.77
472.55
458.8
406.76
457.73
463.71
484.79
479.82
491.56
439.96
469.34
464.26
456.87
454.22
515.81
447.53
483.56
456.77
453.97
543.21
464.41
477.04
482.03
455.48
500.38
498.95
443.86
463.72
466.28
459.75
462.14
471.3
490.97
412.78
471.15
424.41
411.87
412.21
416.69
452.63
375.71
423.42
350.44
379.36
392.9
381.3
368.54
338.09
330.59
317.33
300.15
331.4
226.4
251.05
267.11
186.75
220.73
232.04
151.42
157.58
208.11
192.06
170.56
134.49
66.58
106.09
23.99
83.98
12.75
52.02
43.94
-34.04
-51.61
-79.18
-50.27
-38.63
-61.69
-54.18
-123.35
-158.67
-139.34
-129.12
-134.28
-209.43
-180.67
-196.31
-185.57
-259.11
-288.51
-213.6
-306.48
-255.45
1156.8
-335.64
-322.73
-372.93
-331.24
-381.56
-369.29
-410.15
-388.52
-439.47
-435.41
-429.27
-383.65
-388.93
-403.94
-457.1
-483.68
-470.09
-441.21
-460.78
-473.04
-469.21
-483.69
-480.2
-495.31
-516.87
-543.41
-496.57
-508.82
-499.08
-463.88
-525.5
-490.37
-531.5
-526.87
-534.29
-468.74
-505.08
-443.11
-520.75
-481.61
-488.27
-508.24
-459.68
-442.65
-496.09
-466.16
-457.16
-473.5
-405.96
-373.95
-380.51
-405.22
-441.81
-369.59
-392.63
-326.02
-307.13
-312.48
-340.88
-368.92
-340.9
-256.87
-287.18
-274.47
-277.82
-229.8
-196.75
-172.11
-159.48
-222.31
-218.79
-186.61
-153.46
-134.97
-114.45
-129.14
-104.78
-67.65
-94.6
-5.55
-15.09
8.89
8.28
51.69
66.91
31.46
22.51
117.08
71.11
89.04
161.83
129.45
173.33
142.92
173.93
236.67
188.12
253.44
192.26
211.6
225.99
256.44
277.11
334.26
289.31
309.63
348.21
298.65
399.83
326.4
376.06
398.69
379.44
372.19
400.47
372.82
380.41
427.04
432.19
460.19
464.33
417.04
434.42
442.59
477.1
519.08
505.89
474.09
512.32
452.5
452.48
516.42
509.56
463.85
548.93
533.4
451.15
539.41
453.43
538.69
490.82
482.06
475.29
501.57
517.16
486.96
492.69
447.14
492.57
419.99
453.05
474.68
407.73
375.55
424.6
420.15
418.21
427.08
364.75
414.7
309.78
385.97
325.3
303.02
298.71
265.39
1785.91
296.79
299.5
276.7
267.8
194.11
184.79
221.36
193.6
213.69
182.03
107.22
127.15
135.58
89.4
58.23
28.75
85.92
35.41
-26.45
-16.93
14.52
22.03
-40.79
-104.91
-40.7
-81.2
-110.72
-149.26
-82.98
-181.1
-174.75
-142.75
-182.06
-217.31
-249.34
-240.6
-223.49
-287.36
-237.35
-245.44
-262.43
-281.92
-292.79
-287.95
-343.12
-384.12
-367.61
-351.74
-425.74
-401.35
-380.31
-432.64
-388.65
-437.9
-464.14
-391.49
-398.81
-454.27
-481.37
-417.38
-501.19
-462.37
-496.92
-478.74
-497.6
-468.69
-524.76
-532.65
-526.67
-476.04
-528.87
-540.15
-488.52
-539.89
-523.08
-457.76
-500.63
-530.7
-504.26
-504.63
-437.04
-452.2
-449.72
-497.47
-492.91
-481.92
-486.83
-427.38
-420.36
-418.7
-420.27
-436.96
-436.41
-438.37
-377.93
-353.42
-368.22
-347.91
-360.6
-342.92
-307.33
-346.02
-277.9
-269.95
-312.38
-213.2
-222.8
-238.11
-186.54
-185.85
-176.88
-229.48
-145.6
-185.87
-166.16
-82.05
-145.47
-89.94
-55.94
-22.92
-18.78
-18.23
-27.6
-11.82
19.56
21.58
-7.42
100.74
21.33
95.92
138.41
109.25
141.83
184.16
208.03
139.82
187
189.48
192.94
268.06
237.55
240.01
253.12
269.66
266.43
292.39
293.25
291.56
307.39
327.32
353
371.38
392.45
360.73
394.63
437.42
371.94
408.66
425.34
416.49
442.74
446.97
440.73
445.03
477.44
1987.13
435.48
508.16
485.35
501.81
539.14
445.72
461.48
540.8
537.26
487.11
506.53
467.11
464.13
486.78
459.86
450.32
461.33
484.29
487.53
487.48
463.62
491.28
499.24
479.31
494.88
415.46
431.59
451.65
420.38
404.5
407.69
422.09
418.29
390.65
321.9
403.96
383.32
349.79
322.23
301.6
274.53
296.64
289.65
236.45
299.52
197.33
188.6
260.35
247.38
216
218.05
150.55
102.42
151.12
85.67
128.77
115.69
105.79
28.9
76.85
32.7
24.63
40.14
-27.79
-32.94
-41.27
-57.31
-86.53
-64.72
-89.2
-165.71
-91.99
-170.24
-159.98
-153.28
-183.99
-172.31
-201.58
-257.24
-290.24
-312.93
-305.71
-318.53
-308.6
-306.56
-368.25
-313.2
-306.39
-365.35
-337.32
-362.45
-396.43
-429.2
-430.53
-433.31
-452.67
-420.93
-459.85
-445.27
-412.6
-411.89
-504.18
-507.41
-435.38
-465.91
-500.09
-532.11
-499.32
-506.8
-526.58
-534.99
-528.03
-479.1
-505.67
-470.22
-531.47
-546.16
-490.3
-449.19
-526.9
-539.75
-513
-504
-452.19
-473.98
-454.08
-513.41
-499.33
-403.77
-406.53
-430.52
-428.35
-387.97
-444.85
-448.96
-365.05
-352.22
-428.54
-382.74
-410
-396.16
-300.52
-355.27
-334.54
-278.67
-317.74
-307.7
-228.38
-296.38
-265.2
-199.47
-209.58
-222.64
-229.68
-202.11
-187.86
-151.06
-138.46
-131.69
-147.12
-56.32
-25.92
-97.26
-24.33
-14.15
-29.93
1512.95
44.83
28.99
53.62
97.93
92.4
112.84
92.13
163.53
131.89
143.93
173.43
138.92
189.59
171.12
174.61
215.79
234.41
286.85
253.53
314.88
327.83
314.7
284.24
304.26
379.33
375.22
340.67
383.33
426.95
420.75
445.5
398.73
469.37
389.72
416.99
397.11
480.89
437.67
499.55
419.54
501.89
439.95
498.54
477.75
450.69
458.91
527.89
493.78
527.34
469.54
514
504.54
450.23
490.82
472.01
536.14
496.5
495.72
520.77
512.11
501.99
483.52
452.24
436.26
471.64
441.89
453.2
458.51
444.64
412.98
423.12
378.2
373.62
387.62
407.21
371.29
350.82
334.13
340.27
279.99
302.93
318.52
281.16
291.26
304.09
291.31
260.02
230
239
160.6
194.98
162.54
184.58
110.05
133.73
70.81
137.46
137.01
86.08
7.95
66.04
49.59
-14.3
-28.7
-62.38
-6.34
-33.28
-82.01
-51.62
-52.63
-101.26
-106.26
-97.66
-107.53
-187.39
-221.57
-146.8
-250.58
-223.06
-240.75
-281.52
-267.27
-237.82
-276.08
-327.95
-358.09
-357.64
-303.91
-345.51
-374.17
-354.49
-415.82
-417.54
-404.66
-364.78
-408.44
-463.59
-409.35
-465.31
-477.36
-496.31
-417.68
-463.79
-479.1
-480.96
-514.26
-520.54
-530.17
-523.01
-467.6
-508.1
-506.24
-533.5
-498.94
-512.46
-540.95
-538.19
-534.79
-480.15
-503.49
-535.89
-491.33
-486.15
-493.49
-510.1
-438.55
1045.41
-498.1
-458.54
-459.46
-419.71
-421.26
-434.23
-431.36
-407.64
-390.8
-368.76
-415.26
-391.13
-398.93
-384.31
-305
-375.04
-295.24
-365.34
-281.03
-248.62
-243.55
-290.76
-211.84
-209.11
-243.11
-206.18
-162.63
-216.53
-178.26
-155.63
-193.83
-176.96
-145.85
-146.1
-105.12
-55.52
-102.67
-81.67
-6.51
16.83
-16.18
-14.08
-4.29
21.59
10.93
39.6
90.4
121.71
103.74
119.29
182.63
195.86
210.9
175.43
155.08
182.47
222.84
246.16
247.11
228.59
313.88
280.83
281.03
290
321.93
370.14
369.84
386.4
361.41
389.95
407.1
405.65
374.78
423.77
394.14
424.51
408.11
458.67
415.48
459.3
484.07
433.16
459.59
524.95
519.75
523.08
536.49
475.28
456.94
529.29
462.68
512.55
459.23
492.11
503.81
539
514.67
537.03
523.18
487.4
534.37
432.3
506.92
432.1
513.83
470.85
497.74
419.86
443.36
436.22
472.45
380.16
415.67
422.34
365.77
341.22
422.96
399.72
326.65
347.15
370.14
369.7
295.9
322.01
263.81
230.02
232.94
223.86
233.83
202.65
175.01
230.47
209.94
115.97
106.07
175.4
146.73
134.99
104.5
48.44
32.89
87.89
55.62
55.53
38.35
30.8
-72.78
-48.02
-17.49
-60.96
-66.04
-55.45
-158.36
-168.82
-158.41
-120.53
-198.99
-141.2
-217.16
-245.57
-265.33
-227.83
-273.57
-314.49
-261.5
1195.53
-312.85
-294.88
-371.65
-294.91
-325.81
-354.35
-359.76
-334.41
-377.83
-390.36
-431.83
-401.21
-453.29
-399.42
-401.12
-448.27
-441.72
-442.62
-498.21
-481.49
-511.9
-450.43
-518.02
-529
-472.4
-497.12
-461.73
-509.66
-480.19
-508.6
-547.5
-473.56
-493.64
-527.7
-500.66
-542.24
-457.48
-496.33
-490.14
-462.74
-469.88
-457.72
-469.98
-457.48
-496.43
-451.99
-399.37
-411.24
-438.16
-421.16
-410.45
-360.17
-419.07
-399.17
-355.79
-379.87
-318.12
-327.52
-332.94
-356.55
-291.41
-314.6
-248.27
-228.72
-290.2
-223.98
-193.11
-201.14
-208.73
-215.53
-175.23
-198.89
-138.53
-145.25
-90.13
-117.16
-78.41
-126.92
-23.26
-8.67
-17.08
-30
-22.79
-24.86
-24.84
78.48
25.49
42.47
114.36
84.79
142.52
144.23
100.6
170.48
184.13
192.09
185.81
258.04
242.04
224.15
259.5
225.6
286.72
287.35
280.99
308.9
296.56
348.22
393.73
350.49
391.57
426.62
370.53
360.18
390.82
433.86
404.82
415.97
421.12
422.06
419.57
507.43
465.61
446.26
492.86
498.55
514.11
443.02
517.36
460.45
519.08
542.37
485.81
507.47
464.14
453.36
532.97
545.74
509.69
454.02
507.19
517.94
484.04
476.85
476.39
499.71
454.3
427.75
439.61
444.23
465.06
394.75
422.52
383.64
453
426.04
397.8
405.41
406.45
341.67
375.17
345.81
291.75
308.95
347.76
296.08
1801.84
228.21
302.66
257.17
190.72
176.32
253.55
197.01
136.37
202.95
134.35
167.06
159.52
88.11
87.92
58.21
37.42
87.83
-5.95
-26.93
2.19
21.64
-3.34
-39.36
-25.95
-83.76
-103.63
-79.2
-108.32
-106.68
-176.05
-138.02
-205.79
-148.79
-239.84
-209.05
-206.68
-250.2
-233.34
-252.41
-296.19
-291.8
-338.51
-336.8
-330.34
-291.76
-375.01
-403.67
-410.17
-352.03
-381.57
-355.73
-415.99
-431.6
-428.03
-435.47
-468.42
-487.69
-471.47
-465.89
-421.73
-421.07
-439.62
-518.29
-510.82
-456.98
-487.76
-534.55
-463.08
-479.82
-451.58
-509.33
-480.82
-475.87
-492.48
-454.13
-524.57
-496.18
-528.05
-444.67
-447.49
-522.59
-434.99
-457.61
-477.8
-497.62
-455.15
-500.51
-404.51
-453.72
-426.54
-391
-391.66
-404.61
-380.22
-390.44
-405.4
-364.15
-375.17
-315.58
-334.1
-280.5
-313.01
-289.42
-252.53
-252.87
-278.89
-254.18
-276.29
-255.59
-207.81
-161.92
-138.15
-207.4
-204.67
-145.94
-132.33
-152.93
-64.64
-129.17
-53.47
-44.68
-30.3
-43.84
13.54
2.66
-28.48
79.06
14.83
63.46
81.46
92.59
71.73
80.9
139.7
122.99
207.83
180.02
168.86
230.12
245.2
277.85
221.95
275.64
297.6
241.49
285.52
318
316.12
319.94
376.42
338.95
333.31
396.08
372.75
397.41
433.36
379.5
387.75
448.32
400.2
424.15
422.84
434.19
480.84
484.89
435.48
1972.14
469.96
450.06
508.47
452.7
490.54
480.83
458.72
542.24
513.02
504.33
539.35
460.56
541.84
525.21
502.08
470.09
440.02
505.77
502.62
459.52
455.32
459.25
447.98
479.82
481.26
471.17
410.27
403.73
377.02
374.02
377.46
384.87
392.77
379.47
378.87
352.27
377.13
370
360.77
263.82
329.65
294.19
292.39
303.38
216.87
244.17
188.21
209.28
209.59
197.53
197.66
149.45
156.51
100.64
79.2
48.33
55.04
37.49
52.11
-18.42
10.29
39.65
-34.15
-40.45
-17.29
-16.77
-59.88
-71.51
-116.04
-79.42
-128.15
-170.29
-163.31
-227.48
-218.51
-194.93
-191.59
-276.38
-290.5
-239.77
-242.38
-323.78
-313.99
-283.34
-303.32
-302.73
-346.12
-355.27
-323.51
-360.99
-342.65
-443.22
-386.95
-406.28
-457.29
-428.2
-408.25
-474.1
-423.19
-443.24
-427.35
-425.18
-519.03
-462.72
-438.14
-501.97
-537.87
-529.86
-451.26
-453.06
-478.38
-508.06
-528.89
-491.46
-513.19
-537.36
-486.36
-475.74
-522.95
-457.38
-440.98
-475.97
-484.75
-435.72
-499.64
-442.73
-506.88
-465.65
-409.2
-471.69
-429.4
-384.43
-397.89
-460.88
-369.39
-363.29
-341.24
-413.64
-400.78
-306.8
-299.43
-369.56
-283.69
-262.79
-300.43
-240.89
-237.35
-234.03
-220.09
-237.97
-226.28
-165.58
-236.48
-163.63
-156.12
-193.28
-119.23
-106.39
-153.96
-118.72
-88.33
-40.55
2.78
17.69
11.59
1526.99
-32.23
72.77
47.56
45.18
95.46
138.1
62.24
103.76
128.92
145.75
168.02
146.06
200.15
162.49
235.98
267.5
243.97
221.57
230.09
316.09
259.04
341.88
356.56
308.26
327.95
335.22
341.13
367.47
378.89
429.9
376.37
441.59
432.68
408.18
452.55
477.95
431.52
409.87
453.96
470.6
509.67
508.6
526.16
445.33
464.68
485.21
473.07
492.46
500.86
488.47
544.08
474.39
496.36
495.73
474.87
468.76
492.09
470.52
457.97
529.7
521.35
501.37
427.75
482.13
503.66
472.44
432.53
394.6
447.53
441.47
461.93
414.96
401.46
434.31
428.78
367.46
381.06
320.9
297.57
291.19
318.99
284.88
307.26
313.68
263.49
266.65
259.3
204.3
242.99
217.52
199.31
224.27
119.12
196.5
175.85
141.79
90.62
71.5
119.66
61.88
90.96
15.79
66.64
24.42
-24.47
-3.51
-45.07
-29.3
-109.29
-62.05
-81.43
-113.65
-119.07
-141.46
-195.64
-219.38
-154.95
-170.84
-217.81
-229.27
-270.59
-273.08
-293.98
-284.91
-281.56
-298.51
-276.7
-328.26
-376
-395.67
-339.84
-351.26
-390.8
-395.28
-354.09
-386.48
-397.69
-406.02
-441.22
-428.22
-498
-416.57
-444.41
-424.36
-481.35
-461.68
-488.02
-460.67
-456.55
-456.64
-483.79
-528.64
-477.99
-485.98
-545.28
-472.52
-503.42
-453.11
-534.98
-456.74
-457.58
-503.49
-494.5
-524.09
-518.91
-432.13
1054.2
-518.71
-510.43
-455.19
-455.75
-467.46
-437.8
-444.36
-410.01
-425.05
-383.49
-377.48
-436.59
-376.67
-354.94
-334.29
-334.58
-308.54
-323.94
-266.54
-303.12
-326.63
-321.47
-273.74
-248.21
-195.92
-232.54
-226.83
-234.36
-224.74
-123.79
-117.24
-89.31
-81.93
-155.99
-107.54
-90.84
-48.81
-83.58
-4.29
23.34
-1.07
-13.72
60.86
14.01
93.76
40.76
49.01
71.99
149.26
176.69
158.99
196.15
149.95
234
181.14
238.59
256.53
191.72
250.03
292.69
243.94
298.12
297.37
301.7
350.97
362.1
309.39
312.58
413.13
375.32
421.17
366.59
361.67
393.52
426.37
460.05
434.56
490.12
430.35
508.43
423.92
452.04
503.66
462.86
524.64
477.4
470.27
459.92
499.54
533.99
481.15
501.68
547.31
454.86
471.81
509.64
489.02
458.65
500.94
446.64
487.66
507.54
520.98
464.3
492.6
461.04
508.2
407.88
440
433.13
464.6
430.57
412.5
363.13
426.74
344.55
427.83
354.72
328.67
317.83
354.54
290.12
338.72
265.16
282.48
306.6
298.96
284.56
244.27
208.54
191.45
223.32
193.41
217.95
132.1
163.26
141.22
107.97
50.21
93.11
59.12
57.18
-7.8
32.16
-40.76
23.25
-50.64
-45.31
-98.62
-39.93
-105.99
-52.97
-113.79
-124.48
-103.46
-200.45
-180.38
-155.03
-227.61
-223.43
-192.29
-216.86
-293
-216.95
-241.2
-265.22
1174.97
-330.4
-296.08
-369.76
-349.52
-322.75
-349.41
-426.61
-349.76
-382.07
-431.4
-409.91
-405.91
-405.31
-441.5
-417.67
-438.31
-448.51
-491.64
-496.3
-440.62
-514.55
-528.35
-525.38
-442.84
-505.04
-528.65
-447.75
-521.41
-535.56
-453.58
-515.13
-492.31
-484.69
-535.09
-495.39
-519.16
-482.93
-498.63
-484.73
-516.77
-433.93
-510.17
-487.69
-458.71
-438.07
-465.2
-438.89
-433.07
-423.97
-386.21
-414
-435.15
-358.32
-409.25
-398.23
-379.02
-372.62
-342.29
-370.85
-314.58
-290.53
-315.63
-318.03
-217.75
-301.18
-215.47
-214.18
-258.54
-195.81
-159.84
-149.27
-111.42
-152.99
-99.51
-156.16
-62.14
-116.55
-109.16
-75.52
-42.05
7.68
-32.98
-29.31
27.56
25.14
31.56
64.07
30.63
87.01
98.51
102.07
110.99
121.54
203.26
179.68
179.72
229.52
253.74
188.42
272.54
245.87
286.02
319.71
343.82
343.69
333.76
365.47
391.16
339.67
365.45
423.4
406.12
385.55
373.92
402.21
377.23
473.24
402.29
439.37
473.38
435.5
420.72
463.4
494.99
439.19
532.06
478.05
527.17
481.2
526.16
448.95
464.74
501.9
528.89
488.62
474.41
456.43
470.93
487.92
533
442.6
467.57
436.58
448.02
517.48
506.93
505.02
440.52
487.1
405.14
442.37
446.86
442.29
389.29
432.36
380.91
388.7
391.21
416.88
358.24
332.55
319.6
377.43
366.41
302.78
1810.15
232.84
309.4
279.49
236.88
191.82
212.36
238.26
212.78
139.68
171.6
174.67
103.5
138.42
131.13
72.11
29.45
82.55
11.28
64.13
50.94
-33.14
-8.87
7.95
-12.11
-60.94
-33.83
-128.54
-65.79
-145.51
-134.42
-144.38
-175.99
-163.44
-204.75
-238.2
-192.59
-258.57
-261.54
-297.66
-238.69
-303.07
-297.59
-336.17
-291.16
-360.48
-334.15
-388.55
-320.63
-345.18
-337.19
-417.35
-421.35
-379.81
-422.66
-406.14
-472.36
-474.36
-436.45
-414.81
-463.44
-506.83
-458.31
-461.04
-505.27
-447.2
-514.61
-516.67
-503.84
-456.58
-452.78
-507.96
-497.27
-454.31
-542.33
-458.5
-518.27
-452.56
-484.24
-532.6
-503.39
-439.4
-461.05
-524.51
-476.43
-457.64
-500.16
-417.49
-471.67
-488.05
-391.19
-442.33
-450.04
-456.56
-384.4
-411.95
-413.29
-351.89
-335.83
-304.4
-345.5
-301.63
-345
-314.68
-259.4
-300.61
-298.22
-287.68
-246.64
-224.09
-242.75
-241.81
-177
-147.95
-124.44
-163.44
-162.96
-156.74
-84.55
-124
-82.36
-37.58
-69.08
15.04
-40.18
-47.67
57.99
-11.44
22.93
66.52
95.49
82.67
79.75
117.7
134.99
177.18
167.24
216.2
154.37
161.75
237.75
225.57
278.75
263.49
242.81
294.68
296.65
269.22
324.56
380.68
364.76
393.72
364.56
342.93
409.15
382.04
376.73
363.41
452.63
463.22
418.5
432.16
444.73
408.87
505.73
502.45
520.32
1973.46
508.03
452.47
498.68
488.58
473.1
455.16
518.1
505
529.17
505.73
509.55
471.65
478.41
463.33
514.68
507.93
509.34
511.08
494.72
456.01
505.99
492.39
503.05
448.21
479.21
412.39
478.18
424.16
391.55
397.19
451.43
397.56
335.78
378.18
410.06
350.39
309.44
283.75
368.54
342.01
266.63
260.69
271.11
303.13
279.42
234.43
225.86
222.19
224.88
139.12
135.76
128.65
135.97
87.76
117.93
87.33
29.96
26.06
58.23
-14.23
-13.03
-1.52
-45.89
16.43
-73.56
-37.11
-68.92
-103.91
-83.53
-151.68
-114.54
-148.05
-144.03
-144.54
-216.63
-206.72
-220.67
-230.86
-205.46
-257.72
-262.21
-314.06
-248.17
-348.43
-308.97
-376.19
-344.96
-371.18
-331.78
-379.19
-415.94
-346.68
-416.98
-426.3
-449.12
-463.26
-404.74
-412.82
-465.41
-410.41
-432.23
-461.17
-464.35
-467.33
-525.38
-440.44
-442.47
-474.79
-514.42
-519.9
-543.73
-513.77
-526.18
-492.2
-544.32
-462.74
-468.44
-507.77
-504.95
-477.89
-462.99
-505.6
-497.47
-492.52
-434.57
-439.9
-460.32
-448.25
-420.4
-463.22
-449.14
-430.75
-458.72
-374.34
-370.85
-402.26
-393.14
-341.71
-373.41
-306.91
-337.2
-374.89
-324.02
-296.39
-309.87
-288.23
-314.84
-245.85
-213.14
-227.26
-216.93
-212.8
-208.47
-142.2
-159.99
-119.34
-152.14
-136.79
-87.59
-67.91
-45.98
-30.1
-75.35
-52.22
-30.39
-54.94
1463.52
-23.37
67.21
81.8
24.5
76.85
116.46
93.78
86.74
153.68
202.28
131.78
207.95
219.98
241
225.12
256.23
263.42
279.77
239.79
321.49
271.27
353.11
311.48
296.45
364.37
348.82
373.72
374.54
354.87
413.44
392.29
447.4
441.44
404.06
459.14
477.77
413.79
430.71
471.89
468.17
425.56
480.58
520.09
443.3
475.96
538.41
467.97
545.36
522.85
527.39
472.05
464.89
517.51
487.47
517.11
520.12
469.11
486.59
486.48
478.11
484.2
466.78
473.02
505.34
495.48
476.5
463.14
487.22
462.86
398.59
390.68
421.18
384.6
409.67
416.18
401.58
382.54
364.88
359.48
283.63
267.84
302.39
240.87
293.53
236.96
277.32
272.29
189.31
168.09
173.03
135.52
196.35
123.57
93.84
103.92
71.17
145.64
82.26
117.22
8.98
64.82
-19.9
-39.05
-25.55
-9.05
9.01
-19.43
-78.83
-123.77
-137.56
-99.76
-91.91
-180
-185.87
-169.13
-208.73
-178.01
-210.82
-239.53
-245.12
-218.77
-251.06
-229.21
-264.45
-271.01
-363.04
-362.9
-376.14
-362.48
-391.28
-365.86
-395.16
-379.39
-388.64
-368.36
-461.09
-450.75
-447.55
-399.89
-464.99
-462.35
-442.39
-414.67
-449.98
-513.11
-430.84
-524.08
-439.54
-464.64
-470.33
-521.9
-540.24
-545.11
-504.45
-452.57
-516.82
-510.3
-476.81
-491.66
-510.54
-454.22
-532.99
-511.98
-435.88
-506.32
1037.17
-481.04
-484.78
-475.62
-445.8
-471.53
-458.24
-438.81
-402.56
-435.81
-377.28
-371.01
-390.79
-379.74
-342.03
-333.57
-386.69
-350.77
-294.59
-294.91
-296.83
-245.67
-276.14
-216.96
-222.51
-275.28
-252.49
-195.97
-173.56
-227.44
-218.02
-161.14
-120.02
-169.43
-162.56
-108.97
-96.6
-80.43
-96.19
7.11
12.26
-29.73
49.3
9.25
54.25
6.45
19.74
81.35
46.18
62.68
147.51
154.2
112.43
133.95
137.35
161.45
217.85
261.15
243.16
276.17
232.39
324.12
321.04
334.45
312.72
365.94
309.3
311.63
353.17
415.71
424.62
429.2
427.45
444.95
402.35
391.92
400.57
396.57
428.73
450.76
441.57
479.12
423.74
456.78
480.14
435.02
494.86
520.6
518.09
491.24
517.37
532.38
518.79
462.45
467.24
517.06
507.8
482.33
527.56
474.72
446.37
441.31
436.18
482.55
507.23
480.16
443.78
434.15
418.32
457.94
410.25
449.74
437.57
458.76
403.38
423.37
381.33
355.03
327.79
408.51
398.57
319.43
301.84
313.82
299.88
251.79
305.39
312.08
207.53
226.17
275.28
209.93
196.81
166.58
201.65
143.93
151.09
88.83
144.6
140.83
112.83
89.3
23.53
51.37
43.18
-7.44
-36.52
-40.72
7.96
-53.98
-62.45
-63.92
-81.4
-135.83
-102.75
-161.83
-170.67
-202.1
-197.69
-156.31
-161.26
-191.52
-244.3
-275.24
-287.61
-273.35
-259.13
1156.62
-318.57
-322.48
-314.8
-328.91
-310.93
-339.17
-411.12
-406.81
-364.87
-391.62
-400.85
-428.11
-394.4
-425.34
-447.88
-488.5
-489.43
-425
-505.23
-448.96
-491.99
-489.49
-533.52
-483.77
-457.57
-537.98
-474.28
-532.75
-513.17
-449.98
-508.91
-519.99
-526.23
-468.22
-486.61
-482.96
-471.8
-470.63
-469.8
-471.23
-499.23
-480.94
-490.58
-494.15
-467.37
-432.38
-455.89
-468.33
-442.77
-440.06
-384.2
-354.16
-440.78
-412.56
-398.61
-334.52
-391.86
-308.78
-367.82
-335.84
-274.38
-253.69
-329.97
-275.21
-293.78
-243.09
-237.47
-233.95
-217.48
-147.43
-196.48
-140.85
-190.94