-359.66
-250.2
-318.79
-235.58
-294.93
-277.55
-269.82
-180.33
-219.6
-196.63
-214.03
-123.72
-198.06
-107.45
-161.59
-150.27
-103.07
-87.5
-88.72
-28.84
-27.19
19.91
22.13
13.68
59.92
33.23
24.88
34.32
126.22
55.6
137.68
81.61
150.57
161.97
150.78
148.37
188.84
188.05
183.52
257.85
258.03
238.96
252.5
307.57
294.26
328.58
279.69
351.03
329.53
350.65
349.84
356.55
352
444.58
422.03
460.09
413.19
416
460.25
451.75
425.63
506.39
474.89
455.98
489.11
496.98
475.66
466.11
531.53
515.71
500.8
520.94
459.72
505.31
510.42
506.36
547.55
528.06
464.15
539.6
447.88
520.73
438.06
437.53
522.02
454.74
434.76
433.47
412.6
440.32
492.66
416.56
417.99
393.03
412.82
456.53
385.15
357.61
412.08
339.91
358.39
367.46
304.96
313.22
326.24
261.25
294.89
269.95
216.19
210.36
229.07
248.36
224.27
158.11
139.91
217.47
122.25
175.88
82.69
118.2
130.51
77.41
52.4
71.75
38.3
47.78
53.62
-51.11
-29.19
-61.63
-43.59
-27.98
-80.17
-72.73
-110.98
-167.05
-154.51
-160.1
-185.34
-224.16
-153.55
-247.92
-194.46
-207.92
-269.19
-271.42
-272.69
-280.39
1199.8
-319.42
-292.45
-346.4
-336.37
-370.35
-380
-357.14
-395.18
-427.29
-375.24
-423.81
-459.52
-421.84
-426.41
-466.66
-490.45
-430.53
-459.63
-444.15
-445.66
-517.48
-441.86
-453.26
-502.62
-495.55
-504.2
-506.02
-512.3
-534.75
-528.59
-482.81
-506.54
-515.08
-493.53
-539.25
-541.11
-497.23
-466.33
-506.69
-441.69
-510.7
-492.69
-492.83
-475.53
-420.32
-477.19
-466.56
-418.06
-451.12
-414.85
-431.35
-447.71
-407.04
-399.57
-385.95
-394.44
-301.5
-375.64
-296.09
-359.2
-309.21
-313.04
-266.04
-315.55
-250.44
-281.59
-271.26
-194.75
-232.48
-227.57
-179.8
-193.51
-152.06
-164.22
-148.68
-95.05
-52.37
-93.61
-101.29
-50.76
-9.24
-5.52
-44.66
56.7
48.86
16.25
90.76
84.99
113.2
110.98
146.77
99.65
141.43
153.76
175.87
171.52
182.81
215.87
232.31
203.65
267.16
307.91
304.37
318.03
311.86
356.82
322.93
377.72
384.01
362.76
359.4
337.31
406.44
369.33
429.11
378.22
465.69
466.59
454.9
476.07
428.36
430.14
494.68
462.77
454.83
501.39
439.43
520.17
515.08
469.15
545.92
459.47
535.49
506.92
549.84
526.57
468.62
473.18
521.58
462.64
527.46
495.61
476.63
527.52
517.07
493.2
498.48
410.92
463.57
488.61
449.51
386.42
417.69
417.61
437.68
411.23
406.7
416.36
340.13
389.75
385.87
301.54
359.81
297.99
266.8
1827.95
326.17
231.81
207.74
283.39
187.58
241.53
179.13
143.39
211.55
173.41
105.66
175.3
159.82
52.49
130.49
114.88
22.11
22.36
27.74
30.09
-6.79
22.13
-9.83
-82.79
-35.63
-101.7
-86.57
-152.12
-143.04
-138.5
-156.67
-123
-201.87
-170.07
-245.47
-200.85
-189.47
-279.94
-278.72
-313.07
-323.44
-253.24
-297.52
-343.71
-316.19
-316.78
-324.1
-335.27
-378.8
-375.12
-437.08
-405.98
-461.29
-424.64
-436.24
-415.83
-424.74
-496.75
-438.47
-422.59
-453.86
-468.23
-433.69
-465.35
-524.4
-523.83
-511.14
-542.77
-484.56
-448.72
-511.88
-549.55
-507.15
-470.7
-506.4
-509.11
-537.46
-524.83
-480.07
-508.3
-505.67
-457.89
-526.86
-458.62
-483.19
-455.28
-466.85
-431.94
-421.46
-456.02
-400.67
-396.34
-423.05
-357.51
-370.63
-356.57
-342.01
-383.99
-390.89
-293.46
-349.59
-324.23
-351.2
-318.63
-280.68
-291.77
-289.71
-286.72
-270.69
-216.89
-193.4
-221.43
-174.26
-143.41
-185.55
-148.36
-107.42
-88.93
-122.76
-51.49
-106.72
-92.28
-64.01
12.84
11.07
60.74
-1.32
44.03
58.03
108.25
56.81
113.36
130.66
155.22
148.75
149.96
163.43
202.31
183.34
177.91
191.56
231.56
272.22
283.53
328.75
295.85
313.03
280.59
361.92
312.68
335.93
336.71
359.75
362.54
354.87
422.91
433.61
437.04
403.8
450.88
449.85
406.76
415.55
494.61
497.71
508.71
1944.26
513.67
459.98
449.04
508.05
534.25
493.6
464.05
499.82
489.34
515.48
450.68
486.15
477.23
530.33
487.63
455.59
497.22
485.09
511.89
488.67
458.33
484.1
471.39
484.29
424
485.87
416.64
472.04
374.86
412.09
451.89
421.87
348.01
339.08
406.3
363.63
314.96
350.66
290.08
299.61
326.75
306.39
246.79
210.85
206.38
263.21
173.27
196.24
204.78
181.83
203.25
196.29
133.97
152.52
94.85
121.88
102.21
97.01
16.65
-4.97
66.96
43.35
-31.26
-13.42
-20.69
-57.73
-26.83
-72.46
-74.4
-149.42
-99.73
-117.23
-140.86
-218.11
-153.63
-197.1
-203.7
-197.54
-224.86
-213.93
-284.26
-320.77
-274.45
-291.71
-293.11
-318.49
-334.56
-389.34
-344.98
-382.02
-376.25
-366.43
-400.41
-415.02
-371.81
-476.15
-481.88
-461.3
-447.15
-412.02
-489.26
-457.47
-440.26
-443.62
-461.56
-451.29
-452.53
-462.15
-473.7
-467.1
-547.46
-505.58
-504.18
-543.8
-490.97
-457.94
-541.72
-507.21
-484.43
-474.41
-443.81
-464.87
-520.13
-430.89
-507.69
-510.84
-488.4
-500.97
-412.75
-437.37
-435.21
-446.34
-375.79
-410.79
-409.18
-375.97
-380.56
-376.18
-385.26
-320.44
-330.01
-342.13
-279.23
-272.54
-254.95
-245.95
-267.9
-300.39
-260.27
-214.96
-232.09
-225.51
-206.81
-135.16
-198.9
-132.33
-144.53
-101.9
-85.26
-112.98
-110.59
-29.26
-75.64
-72.88
-34.29
-10.68
1486.38
13.79
52.3
90.51
54.72
35.23
75.95
112.85
134.37
141.13
184.59
125.07
228.93
221.13
179.96
195.57
194.41
299.23
240.29
274.96
320.71
350.3
267.66
352.93
311.59
397.34
323.85
356.68
412.81
396.81
378
383.64
440.76
399.45
469.59
485.98
460.19
474.64
489.98
475.57
498.74
501.68
474.52
436.1
505.71
441.73
462.25
512.15
508.47
456.65
489.06
479.59
536.59
453.57
511
451.33
542.37
457.57
481.52
503.43
510.86
528.42
461.61
447.85
506.39
502.9
457
489.5
402.48
478.91
440.74
462.87
376.9
427.33
422.52
363.19
390.31
404.72
335.25
359.56
284.29
362.62
311.78
276.92
299.28
259.26
235.89
268.83
270.9
163.76
217.04
152.37
196.18
141.28
172.46
123.59
161.27
119.95
58.25
77.29
77.31
47.2
27.17
19.72
-20.25
22.58
-48.42
-59.85
-94.65
-67.03
-55.01
-138.61
-161.77
-181.66
-153.51
-127.8
-169.63
-150
-238.12
-270.62
-283.96
-284.58
-229.67
-274.76
-257.1
-332.43
-359.28
-295.59
-300.96
-339.21
-317.33
-353.87
-369.33
-398.9
-389.2
-379.83
-409.86
-378.65
-454.46
-440.29
-421.14
-403.79
-467.68
-423.28
-476.99
-510.92
-489.23
-515.93
-441.02
-487.55
-472.34
-471.71
-485.39
-522.13
-492.89
-523.17
-525.29
-546.69
-529.97
-476.63
-508.33
-453.09
-456.28
-467.97
-466.91
-461.63
1040.62
-492.49
-496.62
-417.92
-427.63
-433.88
-390.4
-457.44
-463
-391.46
-450.19
-410.7
-432.77
-403.46
-344.79
-375.03
-351.08
-299.54
-289.32
-346.61
-338.3
-313.94
-290.04
-268.11
-260.02
-202.32
-275.87
-237.74
-162.53
-232.49
-138.37
-123.88
-148.35
-171.7
-78.1
-59.48
-122.65
-55.04
-48.89
-19.09
-47.53
-27.72
-3.98
-6.99
-14.84
18.67
74.68
107.21
69.27
80.02
134.49
104.31
179.29
147.01
184.6
181.77
257.28
220.6
228.39
234.81
301.98
274.83
276.51
324.15
352.25
347.52
347.61
336.72
355.34
407.8
386.37
404
404.97
416.55
457.73
430.61
421.9
451.09
415.82
460.9
430.08
487.32
433.82
496.55
505.5
517.72
536.01
448.11
524.42
449.45
492.72
474.47
473.52
528.18
495.04
473.4
479.4
464.68
545.77
501.01
539.02
514.06
469.98
527.78
451.67
458.59
432.17
440.33
441.28
450.53
391.16
410.06
413.13
420.21
360.04
431.49
365.59
422.07
370.92
365.9
351.11
330.19
342.27
281.75
288.77
275.66
309.29
274.1
223.28
222.35
195.36
237.55
164.54
181.63
133.53
117.52
165.09
84.07
151.76
138.98
125.54
49.21
23.55
72.57
-5.56
44.33
32.2
6.36
-14.96
-73.6
-58.26
-45.37
-119.02
-77.68
-92.95
-165.11
-121.28
-173.85
-147.2
-201.84
-202.39
-178.15
-247.86
-218.85
-304.51
-280.73
-299.77
1251.35
-330.23
-367.6
-283.69
-331.9
-383.88
-356.62
-341.2
-419.38
-389.78
-400.36
-416.04
-382.98
-409.37
-453.73
-443.49
-497.91
-438
-498.61
-490.95
-474.41
-469.93
-511.5
-451.06
-484.58
-490.68
-494.27
-486.63
-459.66
-506.88
-549.48
-505.43
-472.22
-538.66
-521.25
-490.1
-458.71
-496.07
-500
-470.37
-455.41
-460.29
-504.25
-437.7
-502.43
-439.2
-443.35
-438.23
-480.3
-388.98
-449.27
-460.48
-438.69
-346.22
-420.8
-323.97
-325.83
-402.88
-308.28
-375.61
-317.91
-263.68
-271.5
-283.24
-300.78
-273.38
-293.98
-190.33
-217.72
-246.94
-198.65
-142.81
-129.41
-186.53
-120.2
-165.09
-129.73
-124.78
-93.78
-103.58
-20.44
-55.22
-27.05
-22.54
-5.17
46.21
41.2
20.84
114.94
41.58
103.42
136.57
149.47
179.33
207.3
132.49
152.53
221.22
190.49
214.95
253.39
249.23
311.67
284.44
320.35
292.93
340.86
330.52
369.21
349.37
374.15
373.13
421.26
381.37
433.66
427.58
377.88
438.95
414.01
417.38
405.19
459.05
430.82
428.81
449.29
524.46
484.52
463.68
490.02
497.64
474.66
531.75
533.54
453.16
529.04
545.71
544.87
524.34
528.67
527
485.63
460.95
486.31
518.8
504.33
435.18
430.64
480.75
415.3
493.52
426.34
477.24
421.15
457.73
468.24
391.4
389.16
354.81
367.48
405.88
362.53
395.45
302.83
380.46
289.47
331.17
248.8
1740.79
294.23
246.63
258.24
196.03
230.27
160.49
225.72
167.9
168.57
145.68
139.88
145.19
83.21
49.69
38.07
16.06
-1.97
20.63
-14.94
-22.68
-52.3
13.64
-12.38
-68.06
-41.04
-108.48
-139.6
-117.24
-167.5
-173.01
-143.89
-138.29
-178.99
-178.71
-237.77
-257.08
-222.46
-299.36
-296.9
-243.8
-300.61
-312.58
-284.14
-311.04
-387.85
-396.2
-393.48
-407
-394.74
-423.92
-378.52
-414.87
-457.19
-454.14
-390.73
-422.71
-467.94
-474.71
-418.89
-481.34
-502.72
-505.37
-504.48
-526.31
-494.57
-490.55
-505.47
-487.9
-524.98
-535.61
-492.85
-504.36
-543.51
-533.84
-457.68
-448.4
-536.94
-531.85
-510.14
-534.54
-441.7
-441.61
-480.37
-513.59
-420.9
-455.4
-449.48
-406.48
-468.4
-467.31
-382.55
-398.92
-444.71
-395.18
-380.43
-351.44
-374.18
-400.51
-332.36
-357.53
-279.65
-306.45
-330.13
-257.13
-275.22
-213.52
-219.59
-222.15
-234.44
-246.46
-171.54
-165.91
-148.37
-175.16
-111.45
-117.21
-107.84
-92.89
-98.86
-113.42
-60.32
-81.89
-12.01
-20.44
-20.83
52.96
64.7
81.76
112.92
104.3
75.61
109.02
149.88
121.35
169.74
191.67
160.04
189.2
219.18
182.14
203.8
285.32
298.04
277.19
268.78
294.55
333.26
311.71
313.55
349.07
354.22
340.12
398.28
398.13
380.68
425.83
441.38
381.28
470.85
398.98
434.5
468.47
436.5
484.44
503.04
472.58
505.57
487.22
522.11
462.29
499.1
482.17
479.7
535.21
482.15
542.88
475.51
528.72
535.97
448.73
473.78
463.2
490.42
499.27
510.97
464.46
519.14
458.6
418.99
489.94
490.8
410.31
470.86
419.67
447.3
378.58
408.73
435.63
382.49
377.58
367.44
376.75
349.23
378.12
318.34
312.05
346.44
284.55
269.28
237.12
268.91
215.55
199.72
173.57
203.97
209.81
210.08
133.44
145.81
101.16
157.11
104.51
124.41
38.69
7.12
4.88
6.59
0.99
-53.03
-71.87
-79.7
-25.65
-18.41
-42.32
-58.31
-70.07
-112.83
-177.49
-116.4
-193.41
-199.6
-191.56
-191.64
-193.03
-223.93
-246.13
-215.28
-231.07
-269.14
-266.17
-301.54
-338.07
-298.02
-297.79
-391.48
-393.9
-416.67
-403.96
-438.32
-444.52
-381.42
-414.24
-440.93
-428.02
-474.75
-424.46
-499.39
-448.32
-507.92
-466.6
-476.29
-470.44
-528.51
-462.56
-482.93
-515.54
-532.24
-498.8
-524.42
-503.59
-477.75
-505.58
-482.25
-508.3
-474.89
-464.67
-468.81
-517.23
-520.81
-512.09
-464.8
-440.65
-444.15
-414.7
-431.14
-496.06
-476.86
-476.73
-459.44
-425.17
-372.39
-410.83
-366.95
-390.63
-382.1
-322.59
-375.75
-326.21
-308.54
-271.87
-296.34
-311.44
-295.13
-295.97
-270.56
-225.61
-252.86
-173.81
-197.93
-215.29
-150.14
-117.99
-122.34
-103.09
-157.76
-126.83
-90.6
-46.65
-22.85
-25.71
-70.55
34.53
1537.5
31.21
73.64
4.08
90.06
66.01
75.42
140.77
174.04
125.19
150.21
200.42
219.41
234.57
239.21
220.77
264.68
294.53
223.54
301.83
261.56
326.46
289.6
284.64
345.61
341.64
392.77
330.76
367.43
339.42
361.94
391.27
442.09
422.03
464.65
468.24
421.6
410.97
501.59
508.95
443.73
492.58
518.48
441.48
467.21
505.07
512.33
448.35
479.39
498.95
496.64
492.91
464.36
546.65
537.4
480.45
503.97
528.69
448.29
500.53
474.85
437.01
479.78
431.58
451.22
439.8
443.17
480.43
417.73
406.48
395.22
396.48
403.13
424.55
397.24
380.1
324.21
346.39
331.2
313.87
329.89
332.69
321.38
248.23
232.66
256.29
283.89
272.89
209.76
254.51
175.07
237.36
128.14
201.34
143.11
85.87
146.19
142.15
43.43
111.95
40.88
79.05
72.54
30.76
38.42
-39.16
5.58
-43.99
-22.1
-103.66
-58.76
-71.99
-146.15
-159.69
-162.95
-201.59
-142.03
-230.88
-255.86
-196.72
-215.67
-266.69
-234.53
-265.34
-250.49
-275.39
-298.02
-319.47
-349.52
-326.88
-403.88
-382.09
-385.33
-400.85
-402.12
-444.38
-442.84
-374.03
-418.11
-463.03
-428.91
-491.23
-496.2
-475.87
-488.12
-484.16
-465.1
-439.63
-453.01
-469.61
-485.43
-500.27
-503.25
-508.9
-530.63
-482.86
-468.36
-489.48
-541.14
-471.54
-536.6
-458.92
-520.87
-438.99
-469.9
-527.37
-524.47
1020.95
-503.31
-488.71
-490.83
-415.92
-395.73
-450.67
-421.66
-438.36
-416.22
-421.11
-405.16
-410.17
-345.09
-317.68
-316.67
-296.8
-281.59
-337.36
-269.04
-253.71
-255.12
-240.08
-222.21
-224.94
-244.21
-201.66
-233.01
-164.47
-217.7
-128.13
-179.58
-172.68
-87.26
-63.43
-62.55
-107.88
-56.65
-4.92
-44.95
-29.8
-6.49
35.67
34.99
7.07
47.72
26.78
105.74
82.12
113.72
109.65
198.13
201.98
172.1
186.34
184.31
173.7
256.56
217.61
272.72
293.04
277.6
316.59
347.4
304.31
339.17
305.01
337.1
378.31
417.71
342.32
432.52
433.4
391.1
438.48
437.63
474.65
397.32
405.63
501.89
492.9
428.4
503.49
493.79
478.15
442.49
461.54
490.46
496.2
522.71
512.48
461.04
544.78
525.61
492.71
517.21
546.31
523.81
502.33
452.39
440.41
497.66
504.73
500.78
495.69
441.9
469.36
422.06
486.51
453.67
397.77
467.47
448.79
447.86
381.22
350.99
396.32
374.94
387.3
320.05
345.16
283.3
348.72
359.78
320.44
283.7
308.29
281.08
295.32
231.76
220.52
214.11
186.88
132.18
147.02
137.18
133.6
105.07
82.06
84.35
27.97
32.22
19.3
14.73
-10.91
-45.12
-17.53
-52.85
-46.1
-77.98
-45.96
-115.19
-106.58
-134.09
-168.93
-125.83
-138.48
-164.91
-139.67
-177.64
-247.26
-235.16
-211.72
-275.63
-248.8
-298.21
-272.87
-328.28
-346.46
-377.05
-376.6
-319.26
-357.48
-409.04
-394.45
-370.54
-428.35
-444.9
-466.43
-455.52
-428.81
-430.79
-403.75
-453.13
-454.98
-438.65
-511.23
-460.15
-449.11
-477.77
-458.25
-457.98
-515.67
-521.7
-530.63
-487.93
-547.1
-541
-464.06
-503.97
-460.98
-514.04
-485.96
-466.62
-500.14
-469.24
-515.25
-499.65
-459.38
-477.59
-435.56
-448.31
-480.17
-473.15
-421.54
-426.23
-387.08
-455.04
-384.53
-368.61
-352.69
-402.53
-391.25
-363.78
-365.61
-379.79
-343.05
-302.63
-264.18
-306.52
-261.22
-281.35
-275.95
-265.68
-215.84
-211.69
-237.56
-186.85
-129.34
-162.76
-88.91
-147.24
-61.75
-65.93
-120.38
-68.34
-96.36
-83.78
-9.66
1.69
10.76
74.9
80.06
8.39
116.8
124.83
91.78
89.29
94.12
178.33
197.48
142.48
196.29
223.32
191.59
215.36
270.11
248.44
217.28
233.54
293.17
288.3
358.26
338.31
336.9
320.91
386.89
325.91
382.05
426.23
366.24
390.63
393.48
413.71
432.85
476.66
457.33
422.54
505.49
486.49
469.88
440.95
500.33
519.5
494.32
505.29
521.42
542.08
492.63
523.3
457.39
472.64
539.31
450.17
532.79
506.48
482.25
450.49
537
517.81
495.76
469.64
488.38
443.89
510.59
479.81
492.03
425.78
453.09
454.72
472.29
444.71
442.79
396.94
355.46
346.25
404
407.57
326.77
382.63
303.68
271.16
256.87
1814.86
301.7
232.04
269.58
251.7
211.56
179.02
187.53
172.06
164.11
180.48
95.9
160.96
144.66
78.09
115.28
91.26
3.64
15.06
13.11
2.98
23.17
-71.19
-41.02
-76.8
-84.61
-122.05
-90.62
-116.82
-174.27
-121.89
-154.36
-168.18
-202.97
-154.79
-233.04
-241.15
-197
-227.81
-305.64
-234.94
-261.82
-338.6
-297.68
-367.64
-310.68
-386.45
-334.5
-329.03
-377.84
-367.1
-389.73
-439.78
-391.27
-423.21
-422.77
-478.59
-403.92
-408.52
-462.17
-458.65
-423.34
-466.88
-458.07
-510.93
-500.41
-445.35
-502.61
-483.69
-518.6
-537.06
-515.67
-477.93
-545.08
-530.08
-506.35
-525.82
-535.85
-463.99
-533.44
-461.76
-454.14
-524.14
-525.53
-505.09
-446.32
-420.43
-440.68
-464.77
-426.25
-473.72
-377.44
-409.66
-367.21
-381.18
-395.56
-395.12
-334.43
-394.71
-312.35
-310.22
-305.01
-363.51
-259.15
-319.43
-321.79
-275.84
-269.67
-279.36
-250.91
-243.95
-170.53
-185.24
-209.02
-202.75
-107.96
-163.97
-110.83
-104.81
-85.6
-65.3
-14.87
-8.08
19.72
-17.93
13.56
36.53
13.94
93.34
81.68
119.43
69.64
121.52
168.41
184.89
195.51
211.83
168.18
171.15
239.94
252.56
229.28
284.21
212.94
238.8
329.33
328.39
267.18
280.79
292.52
333.44
311.99
345.17
401.51
356.63
413.77
398.83
403.93
470.23
390.06
483.96
447.59
428.82
500.16
416.55
427.35
515.16
2013.81
436.68
507.27
461.93
487
445.58
467.04
515.66
531.74
543.16
529.92
508.79
525.9
539.83
465.86
455.42
472.18
469.67
489.55
460.42
457.17
459.12
432.57
476.77
442.1
486.07
443
425.42
455.63
445.29
415.38
429.88
346.44
386
340.55
347.35
385.73
390.2
280.66
303.39
288.82
258.69
273.89
221.09
230.1
225.79
189.65
259.05
165.45
205.42
142.13
175.5
124
149.54
103.58
131.97
61.47
79.2
94.44
40
-2.72
-16.68
10.67
-53.49
-25.07
0.48
-13.76
-33.66
-115.14
-152.84
-162.62
-107.48
-139.02
-202.65
-213.38
-236.53
-205.43
-184.48
-256.41
-294.89
-259.66
-316.76
-239.39
-346.23
-344.76
-342.11
-368.78
-365.55
-341.27
-350.08
-360.41
-427.2
-392.39
-369.19
-362.8
-391.88
-455.94
-473.05
-425.38
-413.82
-446.25
-441.43
-506.45
-464.03
-477.35
-521.42
-516.33
-468.47
-514.57
-533.2
-470.26
-518.19
-514.12
-498.05
-508.5
-526.04
-453.57
-448.32
-492.31
-526.82
-519.84
-533.58
-475.87
-456.99
-476.47
-490.79
-477.04
-475.35
-410.38
-402.61
-484.37
-467.83
-446.07
-429.19
-367.61
-444.42
-415.05
-388.97
-346.46
-412.65
-348.87
-381.19
-285.13
-292.22
-279.54
-311.36
-285.49
-249.01
-271.55
-216.62
-276.34
-252.89
-165.27
-196.39
-196.44
-198.54
-180.42
-149.22
-71.2
-93.33
-115.63
-101.7
-42.87
-95.16
-47.15
-27.87
42.33
-3.22
3.67
3.33
93.6
77.99
76.21
83.27
140.59
112.55
174.95
131.8
127.95
154.52
206.4
267
211.62
292.62
234.98
298.6
266.07
328.28
270.85
325.25
295.53
358.65
320.62
388.64
367.18
334.94
424.62
378.26
449.41
446.18
442.24
482.16
420.65
484.46
500.31
490.53
493.51
441.96
486.91
503.58
520.43
520.43
535.97
533.9
484.86
524.84
458.72
522.99
518.04
508.6
525.67
456.8
526.51
498.79
447.73
496.22
519.36
498.03
495.21
427.21
500.33
461.77
473.01
420.78
440.75
388.31
411.27
407.02
433.63
441.64
420.28
388.18
371.66
373.12
320.83
322.34
327.1
355.79
314.71
340.92
311.52
225.66
225.08
213.11
272.38
268.41
194.23
148.36
184.33
147.6
187.35
143.37
168.26
91.57
105.74
90.43
42.48
30.7
56.55
21.91
-0.31
-15.49
-29.45
-78
-102.66
-86.81
-55.93
-88.4
-80.59
-125.6
-100.05
-161.75
-216.88
-197.15
-229.8
-243.49
-263.65
-291.32
-290.98
-288.77
-262.51
-258.92
-271.57
-363.62
-343.77
-298.13
-346.56
-403.77
-327.91
-366.31
-386.49
-385.89
-439.24
-409.76
-395.7
-455.44
-449.17
-459
-440.92
-487.13
-460.43
-473.98
-458.75
-453.21
-445.5
-463.76
-499.73
-530.97
-489.7
-495.65
-467.19
-525.78
-541.32
-472.29
-517.5
-496.98
-538.38
-472.04
-522.26
-519.3
-479.07
-439.43
-519.97
1020.26
-516.97
-498.32
-426.9
-426.41
-410.39
-435.82
-438.47
-386.29
-448.99
-376.8
-360.56
-355.31
-395.9
-361.2
-319
-347.09
-319.02
-357.3
-293.21
-282.4
-267.54
-284.55
-223.37
-254.26
-195.56
-200.88
-214.09
-212.96
-225.53
-126.19
-141.22
-105.79
-169.11
-93.77
-119.7
-104.01
-46.19
-82.69
-64.19
-32.6
8.21
-4.41
55.22
67.52
36.43
70.09
64.47
71.06
109.96
173.73
150.93
146.91
213.65
176.03
186.91
257
242.83
204.38
205.55
273.4
253.61
282.14
349.87
297.17
368.44
366.76
328.65
337.55
339.26
387.09
343.75
439.03
438.72
396.97
447.06
422.73
467.82
409.92
479.75
464.6
492.76
458.26
506.88
431.34
520.86
484.58
519.09
527.57
465.97
473.57
460.06
529.62
534.18
456.28
482.28
495.82
497.73
526.05
493.35
449.91
476.3
464.25
520.25
523.56
493.93
423.54
502.8
421.25
396.3
476.07
480.7
469.5
428.98
440.74
423.82
382.83
426.62
400.2
381.16
377.04
301.07
345.83
299.52
297.96
261.27
311.55
251.01
228.09
241.83
209.36
254.9
230.02
233.94
216.49
129.19
167.51
109.8
131.14
88.07
88.16
99.44
73.49
61.94
46.3
28.35
-3.24
-16.86
-71.53
-53.14
-114.26
-126.44
-101.66
-119.05
-120.5
-112.63
-195.04
-133.37
-138.66
-228.95
-255.2
-199.02
-247.44
-291.3
-236.16
-306.34
-278.23
1158.9
-282.83
-341.92
-318.83
-388.17
-320.19
-333.9
-348.53
-339.33
-364.85
-438.48
-457.98
-375.72
-460.4
-395.19
-478.32
-497.93
-434.84
-499
-419.98
-446.29
-462.54
-505.79
-530.78
-511.08
-485.26
-539.51
-461.69
-454.2
-513.6
-532.79
-548.59
-509.29
-490.55
-491.71
-504.06
-453.69
-518.58
-507.6
-462.73
-449.8
-501.29
-427.73
-427.75
-427.2
-435.98
-474.88
-409.91
-438.36
-416.82
-385.86
-455.84
-408.44
-369.77
-423.35
-380.33
-331.73
-335.63
-337.43
-311.41
-306.8
-290.48
-317.13
-259.96
-306.44
-222.68
-229.71
-269.05
-263.02
-189.94
-210.3
-175.09
-157.91
-139.48
-82.99
-106.04
-56.64
-67.91
-115.8
-6.06
-20.28
-2.85
-5.21
40.48
-13.78
67.81
87.68
65.92
37.37
50.08
154.11
144.46
98.09
115.02
163.58
174.51
220.46
250.3
199.07
241.48
235.1
279.77
284.61
311.72
304.83
336.81
277.63
300.6
350.63
319.49
326.62
384.47
357.61
383.16
359.01
365.72
376.96
433.64
430.18
472.19
469.19
463.92
493.19
451.93
513.25
467.11
460.88
495.42
522.19
474.39
540.46
530.27
542.94
457.08
494.51
492.39
520.98
483.85
463.71
476.21
533.28
538.68
517.29
519.09
484.81
454.46
468.46
459.42
483.75
439.04
428.05
466.33
435.77
448.7
401.95
368.03
363.69
388.72
348.69
408.77
400.86
337.99
373.34
321.99
362.07
326.72
260.25
302.26
263.59
271.19
223.2
230.06
196.7
226.63
235.97
178.96
191.45
98.69
169.37
82.21
103.23
116.23
118.79
14.12
38.01
-8.21
37.68
9.44
14.27
-3.08
-37.7
-31.78
-115.33
-62.88
-77.83
-143.63
-154.1
-153.85
-164.68
-226.5
-232.11
-181.26
-206.43
-198.37
-219.24
-220.93
-237.58
-266.87
-323.24
-316.17
-279.36
-341.62
-372.91
-365.9
-413.36
-350.85
-367.49
-353.79
-358.9
-428.82
-409.99
-468.01
-419.06
-477.6
-418.31
-442.65
-453.81
-483
-522.29
-441.82
-449.43
-490.04
-460.87
-499.41
-497.51
-474.84
-536.26
-452.64
-483.61
-549.43
-461.84
-484.06
-509.43
-460.42
-514.99
-529.21
-535.36
-465.32
-436.35
-449.04
-447.17
-510.57
-447.61
-501.39
-461.7
-440
-425.8
-427.22
-453.02
-411.18
-397.78
-414.47
-341.76
-350.02
-390.01
-309.32
-332.12
-289.16
-307.58
-325.21
-286.53
-288.4
-272.4
-298.7
-240.36
-215.33
-218.29
-175.35
-212.55
-183.11
-124.32
-124.52
-139.28
-99.36
-73.43
-89.4
-74.6
-26.05
-91.39
-44.87
-6.39
10.98
58.02
34.5
-2.68
29.84
118.36
55.86
76.67
109.05
159.94
108.76
180.87
138.11
164.48
243.44
170.62
189.09
198.17
241.55
291.78
252.42
254.79
344.51
273.36
376.19
314.52
388.34
409.54
404.05
337.93
410.71
388.08
439.38
375.82
432.24
437.62
492.28
444.63
448.81
416.5
449.77
446.78
1996.34
461.62
461.7
525.68
497.81
449.08
526.39
522.51
454.79
474.22
454.62
472.24
545.33
452.37
450.85
535.07
480.97
537.18
443.27
494.39
457.84
446.59
450.63
476.95
459.28
418.79
424.48
449.35
407.53
406.11
367.54
421.15
425.5
420.73
367.01
360.26
376.75
337.04
289.52
340.46
283.37
325.92
248.47
305.2
269.05
265.89
263.86
261.26
172.07
167.87
215.82
200.76
169.62
127.38
155.73
127.7
50.57
76.68
100.29
76.24
66.59
3.11
49.07
18.66
-9.52
-78.91
-24.51
-122.03
-89.29
-75.48
-150.69
-153.58
-185.07
-129.96
-177.54
-220.16
-206.75
-258.83
-181.89
-275.1
-266.87
-257.29
-302.09
-291.36
-261.69
-280.63
-356.25
-313.3
-306.3
-394.71
-345.47
-403.03
-377.93
-371.65
-425.9
-421.74
-468.41
-414.51
-436.2
-426.91
-463.57
-449.53
-502.08
-477.69
-487.17
-473.72
-490.9
-469.49
-443.44
-524.62
-502.01
-513.25
-545.16
-512.35
-488.94
-534.96
-507.51
-492.99
-488.85
-521.71
-469.22
-495.75
-532.62
-514.73
-501.42
-477.79
-472.01
-432.54
-466.19
-495.06
-474.34
-421.47
-408.37
-448.38
-389.92
-395.94
-384.86
-342.85
-408.65
-345.41
-366.31
-306.43
-335.26
-325.41
-313
-291.94
-260.21
-302.44
-300.43
-224.94
-263.11
-224.39
-172.88
-180.31
-202.71
-119.78
-174.23
-156.56
-147.51
-77.38
-54.23
-94.43
-99.4
-63.04
-48.28
-16.89
13.25
1546.3
0.9
79.24
57.1
66.23
104.92
91.07
67.11
86.3
103.21
120.75
147.44
194.32
197.39
198.63
193.22
275.08
214.46
303.94
295.03
261.84
259.22
300.01
361.7
342.41
370.73
315.44
411.5
427.03
408.57
377.4
427.39
417.67
390.96
386.74
464.48
411.53
464.84
427.32
514.72
441.39
483.3
450.56
456.02
484.06
519.34
449.46
449.42
545.89
461.8
542.61
467.87
542.45
514.66
479.25
483.48
466.77
444.55
486.48
515.57
512.99
454.88
442.95
469.71
436.99
432.95
476.52
485.08
468.79
382.64
435.01
433.38
422.19
348.64
421.98
362.94
343.7
392.8
340.02
312.19
288.7
276.53
280.65
272.61
324.16
244.99
246.11
206.37
179.75
180.3
232.53
162.1
194.61
193.6
134.19
92.03
137.24
107.3
76.59
57.87
99.02
30.49
41.95
20.69
-0.8
-29.04
-75.96
-18.69
-68.19
-46.91
-143.51
-131.51
-100.01
-100.44
-115.76
-139.65
-193.09
-160.69
-182.48
-187.13
-252.49
-274.66
-282.67
-300.47
-322.95
-266.56
-322.15
-318.42
-324.83
-389.37
-337.63
-355.36
-391.42
-394.41
-447.04
-426.78
-439.67
-430.11
-480.95
-413.07
-428.37
-417.2
-416.5
-469.13
-467.22
-482.55
-481.03
-466.49
-461.92
-494.2
-477.29
-448.33
-546.48
-487.51
-530.92
-518.87
-532.37
-521.97
-536.7
-515.62
-504.83
-463.41
-464.12
-477.53
-476.76
-516.15
-436.21
-510.71
-482.45
-473.14
-413.35
-420.23
-423.06
-432.6
-445.46
-427.77
-434.27
-390.71
-435.27
-399.34
-328.1
-400.54
-314.01
-359.51
-316.5
-288.92
-270.88
-271.54
-313.06
-248.68
-205.71
-238.51
-193.9
-172.37
-210.34
-220.57
-184.71
-130.61
-150.37
-102.67
-95.23
-63.02
-97.37
-117.43
-88.98
7.72
20.36
-36.28
28.35
45.35
57.02
67.66
88.6
116.62
105.05
133.52
160.55
93.87
192.46
198.5
193.06
211.12
218.18
236.22
221.37
286.22
235.47
265.19
262.56
278.6
360.1
301.98
329.94
342.87
337.5
347.91
424.7
345.29
434.75
381.51
390.02
387.37
400.34
483.93
482.47
445.22
419.95
498.84
483.93
439.43
441.93
510.92
496.13
472.58
473.32
472.98
506.73
536.42
499.66
464.29
500.57
450.34
532.93
519.07
507.8
515.93
454.04
450.56
479.32
490.13
432.43
466.67
450.43
436.6
498.4
431.62
426.91
425.62
390.97
433.63
422.04
367.95
374.76
386.24
358.27
385.69
347.06
352.16
292.1
303.37
259.1
267.23
244.4
237.64
217.87
204.61
203.26
172.02
229.36
181.55
217.85
170.88
117.47
98.89
126.64
104.44
126.67
116.62
15.18
22.8
-2.03
25.33
0.54
4.7
-50.65
-1.33
-64.15
-84.44
-91.34
-153.4
-83.57
-114.8
-187.07
-163.19
-141.34
-161.73
-220.33
-200.57
-279.35
-242.51
-294.58
-256.25
-240.82
1236.34
-260.77
-324.47
-336.16
-361.33
-347.84
-401.15
-372.88
-410.26
-408.01
-360.96
-430.36
-446.9
-426.14
-414.42
-449.96
-456.69
-455.39
-499.2
-430.34
-480.58
-468.57
-441.08
-483.22
-473.25
-469.83
-500.36
-476.77
-461.48
-458.5
-479.84
-469.12
-470.39
-504.36
-546.76
-478.79
-488.8
-497.65
-449.26
-513.19
-488.3
-441.12
-507.67
-472.61
-423.94
-411.01
-456.67
-491.01
-420.05
-396.68
-412.07
-392.11
-425.19
-409.75
-391.74
-334.86
-339.07
-353.87
-344.08
-333.66
-335.19
-353.94
-327.16
-313.15
-231.04
-220.51
-271.13
-211.87
-230.35
-184.12
-225.28
-176.3
-181.27
-154.42
-103.97
-162.17
-149.17
-82.38
-97.53
-56.72
-61.24
16.65
0.79
20.22
39.82
40.56
2.14
79.18
68.35
47.79
60.24
101.66
175.1
179.87
145.5
143.4
149.93
157.86
172.44
233.83
271.99
272.48
308.22
288.01
340.69
262.18
358.2
355.41
349.17
382.72
379.8
406.35
379.78
409.72
449.14
385.59
409.72
467.09
385.13
399.52
485.93
406.4
450.38
459.11
424.87
463.6
507.6
451.56
486.2
461.21
488.99
498.41
474.99
482.85
487.36
454.22
452.26
451.51
457.7
526.82
446.41
510.87
512.55
506.12
449.59
471.36
489.44
433.97
482
432.03
422.87
481.65
442.9
444.23
376.4
425.26
446.23
401.63
394.17
393.5
412.35
375.15
391.28
361.76
290.52
266.52
283.43
1743.2
273.31
243.19
292.7
197.16
256.36
161.15
184.22
187.03
209.78
177.87
172.69
88.19
102.88
98.18
58.38
77.06
2.29
42.68
5.64
21.35
-23.79
-44.47
-53.33
-35.04
-24.42
-97.96
-80.97
-109.43
-172.87
-168.38
-155.87
-132.01
-190.42
-197.18
-171.37
-227.67
-261.85
-295.27
-231.02
-298.49
-322.78
-330.88
-272.24
-322.58
-323.06
-378.76
-327.36
-339.46
-363.98
-362.95
-367.9
-384.94
-428.37
-415.16
-441.23
-470.1
-471.04
-486.42
-507.45
-469.75
-511.94
-505.38
-444.09
-490.1
-513.57
-456.32
-456.81
-460.27
-477.55
-541.31
-515.15
-466.03
-468.35
-451.2
-487.55
-448.62
-467.54
-467.56
-502.85
-500.1
-443.02
-460.47
-494.51
-441.85
-461.9
-413.52
-446.79
-445.49
-442.28
-438.77
-460.42
-378.97
-441.81
-399.23
-423.35
-376.12
-359.54
-309.01
-392.96
-328.15
-274.22
-319.65
-275.65
-307.63
-297.51
-284.17
-204.07
-240
-207.75
-250.66
-170.43
-207.57
-138.76
-113.35
-96.64
-78.25
-111.49
-51.3
-48.11
-34.56
-18.6
12.69
-4.02
-41.41
33.39
-10.11
13.97
54.24
77.57
43.61
139.53
99.12
170.28
141.14
129.79
138.54
217.96
214.28
263.45
248.91
215.35
224.26
276.7
275.45
324.74
322.26
281.21
364.45
360.01
345.34
364.92
417.76
410.54
434.76
427.76
375.07
427.24
440.84
468.81
429.42
491.96
406.4
452
467.47
502.66
487.85
433.58
479.51
536.05
469.77
459.27
510.15
454.07
468.37
482.04
518.18
457.69
454.13
470.32
495.19
457.52
464.2
474.23
471.68
525.53
501.96
489.01
463.05
490.33
496.85
470.35
454.06
442.94
431.64
401.54
411.4
369.83
364.98
358.77
340.08
386.55
382.13
373.93
385.85
275.85
300.07
253.65
314.34
301.34
234.78
227.32
223.74
217.75
242.76
216.35
197.87
214.48
107.26
182.49
99.14
73.89
71.8
38.68
108.36
29.87
22.39
30.31
7.98
-2.37
-3.11
-27.75
-22.86
-97.53
-49.56
-99.98
-73.06
-117.27
-100.63
-150.92
-129.83
-231.65
-164.49
-235.7
-240.73
-238.96
-260.28
-297.89
-233.46
-277.2
-336.93
-305.02
-359.64
-356.7
-376.06
-395.46
-334.11
-356.2
-421.51
-404.71
-413.78
-386.64
-445.28
-455.62
-432.61
-408.44
-458
-435.5
-491.25
-493.91
-488.45
-491.51
-519.51
-473.49
-537.33
-486.31
-454.05
-475.12
-509.83
-460.3
-463.12
-474.11
-537.46
-467.93
-532.75
-478.43
-482.18
-508.98
-449.05
-509.58
-453.32
-519.75
-439.84
-423.76
-425.71
-496.36
-418.79
-455.19
-410.91
-406.16
-393.41
-387.66
-443.62
-373.12
-372.54
-384.45
-352.57
-299.97
-336.87
-292.12
-329.93
-342.59
-276.01
-299.92
-227.68
-293.99
-274.9
-196.64
-216.76
-243.99
-228.16
-156.16
-162
-166.59
-142.11
-98.02
-106.36
-64.96
-89.99
-6.63
-59.66
-65.97
30.13
1496.14
24.67
5.1
62.7
54.44
65.95
57.87
96.58
106.02
177.99
135.88
154
187.11
226.04
196.03
236.67
262.51
260.05
239.27
274.24
272.02
258.37
299.85
287.31
288.35
313.67
362.51
393.31
407.31
415.61
364.56
414.24
368.16
376.84
409.33
476.19
484.84
480.04
474.96
489.59
467.27
431.1
432.98
433.75
501.32
538.94
499.73
483.66
452.29
506.31
484.57
500.07
528.9
472.5
469.85
477.05
473.9
483.45
508.03
465.69
439.85
434.52
473.32
441.75
451.96
448.47
467.81
417.03
458.13
438.34
394.49
433.5
443.48
421.93
394.49
431.29
380.78
408.19
359.5
368.39
299.18
277.86
305.71
300.82
245.43
243.25
242.1
209.51
263.76
230.9
178.67
149.13
206.94
192.28
154.58
141.42
131.98
66.08
92.21
45.81
70.48
34.78
-1.04
-3.19
-19.49
-9.76
-18.77
-1.8
-32.83
-91.56
-59.74
-93.12
-115.21
-139.75
-109.66
-197.71
-201.17
-207.71
-206.28
-260.63
-276.57
-248.2
-272
-299.53
-251
-337.16
-263.91
-274.19
-366.94
-323.74
-333.06
-354.01
-417.65
-397.11
-404.13
-397.27
-365.53
-441.34
-410.24
-427.74
-488.29
-490.81
-435.51
-505.14
-512.58
-481.56
-495.12
-469.36
-440.61
-520.17
-471.02
-462.18
-478.51
-488.41
-483.89
-547.9
-459.31
-534.37
-515.03
-525.61
-496.14
-542.81
-492.45
-467.76
-512.42
-501.78
-478.22
1011.96
-440.72
-483.37
-438.83
-426.71
-459.79
-445.75
-440.57
-453.97
-369.35
-352.62
-415.11
-404.56
-386.8
-346.05
-383.71
-303.48
-370.1
-294.33
-282.01
-310.51
-256.75
-316.32
-300.66
-261.25
-204.87
-170.51
-252.3
-201.08
-201.21
-155.86
-110.03
-158.81
-120.23
-99.39
-135.16
-93.26
-58.16
-77.84
-44.71
-11.1
46
41.98
54.23
16.73
109.32
124.72
71.94
66.2
152.46
112.78
119.05
143.41
193.87
147.05
216.07
218.32
246.8
204.09
273
310.26
275.33
307.05
283.52
317.66
300.19
309.19
352.93
368.01
398.09
426.47
395.49
376.92
391.78
447.06
379.02
421.43
407.62
419.72
458.07
445.15
476.93
460.37
508.84
481.95
482.22
511.07
524.11
508.95
471.62
539.85
475.46
531.69
506
543.2
528.33
482.53
517.39
452.79
494.68
480.35
512.42
516.3
478.55
429.01
500.94
504.17
443.23
451.42
486.82
445.3
384.1
372.82
433.42
392.29
348.44
381.96
349.22
327.89
359.9
322.39
361.77
276.97
356.58
261.4
283.85
229.28
219.06
251.86
272.04
205.96
240.37
164.94
190.41
143.65
178.47
116.14
124.92
138.24
76.32
110.49
50.81
39.07
25.66
47.17
-44.66
25.47
-41.82
-4.34
-92.37
-116.19
-109.28
-63.57
-73.42
-87.53
-133.86
-153.9
-167.55
-174.36
-249.79
-198.76
-270.96
-211.31
-280.34
-294.74
-259.29
-282.72
-256.98
-354.13
-313.64
-387.33
-311.54
-382.51
-385.13
-375.49
-345
-409.11
-369.34
-401.73
-411.53
-422.66
-407.67
-414.45
-414.73
-474.2
-471.79
-491.99
-474.78
-466.92
-524.16
-506.43
-487.69
-486.54
-489.65
-465.31
-480.85
-491.54
-520.51
-534.99
-542.46
-503.54
-526.26
-513.1
-494.82
-514.91
-507.23
-473.83
-457.14
-428.19
-449.81
-508.07
-484.05
-489.46
-459.29
-436.28
-385.49
-466.69
-395.34
-369.71
-441
-348.03
-404.21
-329.95
-320.67
-363.85
-295.27
-338.92
-349.67
-294.82
-283.31
-250.64
-251.92
-280.26
-218.6
-215.61
-245.91
-217.56
-154
-121.36
-118.54
-101.05
-77.86
-82.69
-118.33
-63.76
-25.28
-44.96
-57.47
-14.2
4.15
-2.97
-1.55
-3.94
104.36
37.42
42.43
68.64
104.36
125.53
107.21
134.51
177.72
173.56
190.9
243.82
241.59
253.8
224.34
223.27
237.56
284.9
318.26
318.36
323.86
384.86
357.07
328.47
420.01
396.01
353.3
412.88
406.55
445.32
394.95
452.13
413.29
485.83
471.58
490.45
493.38
498.94
432.59
491.09
501.6
473.54
453.39
497.67
491.25
465.42
495.52
523.5
485.58
498.54
523.35
453.67
496.1
470.3
453.15
518.56
460.27
532.16
441.03
448.73
447.26
461.25
435.59
496.82
456.94
401.17
423.29
408.32
414.06
386.63
365.53
364.77
378.96
319.88
318.87
351.73
328.84
352.62
345.84
311.33
1744.19
314.34
298.86
236.84
275.24
187.16
222.37
179.34
200.06
212.78
118.06
137.95
175.97
68.62
55.99
110.39
20.45
14.16
37.25
-15.84
-2.27
-9.48
-37.14
-20.53
-31.71
-65.93
-109.68
-118.5
-159.15
-127.48
-176.3
-172.46
-187.28
-213.63
-203.87
-222.39
-177.15
-253.67
-239.59
-235.19
-246.58
-284.92
-266.15
-325.6
-336.1
-297.35
-328.66
-348.2
-389.25
-356.44
-381.99
-424.5
-425.9
-401.91
-374.1
-435.46
-397.09
-472.56
-500.22
-424.43
-502.54
-424.91
-476.46
-443.1
-500.45
-444.79
-450.7
-506.77
-481.05
-533.01
-448.99
-457.11
-543.81
-456.5
-538.19
-533.59
-533.7
-545.05
-518.89
-536.61
-495.91
-467.68
-463.46
-425.63
-427.4
-447.31
-428.39
-480.27
-427.33
-431.7
-474.17
-418.77
-433.39
-358.39
-359.51
-414.61
-391.14
-407.56
-378.52
-378.47
-324.28
-322.83
-359.72
-345.03
-266.89
-229.71
-255.08
-275.34
-285.89
-238.28
-261.93
-151.44
-209.36
-198.71
-118.51
-119.29
-107.06
-71.14
-129.21
-43.17
-104.3
-8.99
-30.83
-73.29
-13.96
-20.49
48.46
61.25
30.83
96.35
87.34
121.26
98.68
130.03
171.32
114.39
149.98
142.98
224.36
159.67
227.5
188.91
209
312.14
279.03
258.02
318.27
325.2
287.94
287.88
315.48
354.44
414.44
342.12
412.99
412.31
403.05
427.93
463.55
421.42
444.38
418.65
474.05
426.1
488.61
515.35
515.43
1929.16
449.66
509.99
494.51
470.57
510.54
476.94
479.58
520.34
458.6
537.97
522.45
479.91
528.74
451.03
446.23
449.16
443.72
473.97
511.27
521.55
421.89
489.28
421.49
438.83
486.75
484.76
421.23
454.32
386.77
362.6
429.42
367.82
428.58
335.9
354.11
371.6
348.12
368.09
295.82
277.67
334.33
320.77
257.34
304.6
204.97
210.4
170.87
211.99
140.13
166.47
147.28
185.31
148.16
86.09
84.73
60.81
117.5
85.3
12.63
-21.18
-32.38
-40.18
-9.58
-4.93
-17.21
-84.33
-83.2
-82.7
-155.39
-96.61
-127.83
-146.53
-123.8
-197.05
-158.89
-179.17
-200.92
-239.48
-293.8
-270.47
-260.48
-285.98
-291.22
-307.38
-362.53
-309.06
-330.79
-403.25
-401.45
-385.75
-395.63
-410.68
-433.51
-392.22
-470.61
-400.31
-468.8
-492.62
-446.97
-431.51
-494.25
-427.29
-457.88
-438.09
-523.11
-457.64
-441.52
-471.75
-499.48
-498.27
-520.65
-486.32
-500.71
-457.91
-490.98
-462.06
-503.61
-487.74
-470.72
-493.38
-520.74
-502.33
-525.69
-497.6
-461.88
-439.97
-466.21
-501.26
-426.77
-451.17
-456.87
-440.13
-402.89
-368.21
-422.97
-360.87
-370.28
-363.49
-394.12
-367.72
-294.24
-327.67
-366.68
-299.72
-344.47
-307.96
-252.38
-287.58
-259.61
-205.43
-251.32
-229.04
-150.98
-185.63
-116.85
-146.95
-172.07
-95.05
-59.01
-103.43
-79.18
-48.55
-45.64
17.92
-38.04
1503.64
19.32
71.86
22.34
39.42
68.61
92.77
142.55
98.49
177.46
151.07
147.65
178.97
235.04
197.95
251.05
223.5
263.16
250.57
291.38
298.8
257.24
271.71
302.19
332.61
315.95
343.93
367.41
417.78
419.39
417.48
425.9
403.11
443.85
407.85
389.41
437.24
453.44
485.62
465.18
460.52
478.16
442.25
495.63
456.54
523.63
512.06
508.24
518.79
543.85
486.03
541.02
493.86
499.85
474.64
543.9
473.24
518.93
505
526.79
495.55
466.08
509.28
504.53
505.73
491.99
450.86
481.95
468.24
426.49
388.27
448.24
428.08
369.21
362.63
391.67
412.15
362.15
376.88
297.04
372.05
325.75
342.06
275.65
285.75
283.11
280.08
246.12
238.66
184.62
180.48
186.62
189.73
195.41
178.35
156.02
105.17
61.98
112.8
72.25
93.53
31.53
-2.39
48.52
48.18
-25.83
-43.58
-18.52
-35.25
-97.95
-59.57
-136.66
-69.17
-85.38
-133.49
-140.28
-149.98
-194.86
-235.04
-243.31
-278.13
-240.65
-259.94
-297.11
-248.42
-308.62
-347.13
-271.51
-288.08
-326.31
-324.18
-398.22
-384.6
-363.44
-418.14
-412.68
-363.48
-432.51
-395.49
-474.29
-476.18
-476.26
-441.75
-456.34
-452.08
-446.45
-457.23
-505.32
-520.54
-453.42
-450.65
-540.02
-459.5
-457.94
-483.55
-494.5
-544.85
-466.52
-532.36
-458.06
-467.24
-525.66
-509.11
-525.4
-494.09
-519.86
-519.56
999.84
-455.58
-510.72
-438.86
-459.9
-457.22
-390.62
-436.73
-397.69
-406.5
-420.12
-378.99
-343.35
-328.54
-322.73
-391.3
-311.47
-291.8
-312.36
-262.86
-291.15
-299.85
-242.32
-266.47
-267
-204.72
-216.36
-202.51
-151.38
-193.28
-120.36
-160.37
-151.84
-163.86
-110.63
-64.51
-65.69
-98.48
-18.73
0
-46.74
38.98
-27.31
25.48
65.46
76.47
50.78
115.94
54.08
163.81
134.47
105.79
151.69
206.62
215.67
202.89
209.45
205.59
236.38
287.57
247.19
234.06
335.15
327.51
313.08
290.76
359.6
317.82
317.95
363.61
350.14
404.71
430.84
374.82
402.01
383.06
442.08
479.2
452.13
487.19
462.68
511.6
430.06
429.67
462.68
504.08
480.18
511.85
534.55
537.75
510.66
497.51
515.85
472.26
480.93
532.36
532.32
494.36
470.81
445.76
468
477.88
445.41
453.42
450.51
500.51
429.01
491.8
464.6
435.39
409.73
414.07
470.27
399.03
360.11
384.02
363.24
346.38
376.6
394.41
349.56
312.39
287.31
345.99
320.55
245.81
273.35
255.23
207.37
205.96
258.49
248.59
214.43
228.04
126.21
159.38
154.72
120.64
105.89
107.73
51.37
19.6
58.39
63.78
60.91
43.49
-13.04
18.67
-22.06
-89.81
-61.16
-101.47
-147.39
-141.39
-153.41
-102.73
-137.89
-124.13
-193.11
-157.61
-251.62
-201.86
-197.23
-224.65
-296.35
-271.06
-324.9
1194.79
-299.07
-316.25
-336.94
-306.54
-355.03
-329.31
-403.53
-357.62
-407.28
-451.3
-449.38
-389.56
-382.18
-397.67
-460
-431.3
-416.02
-504.27
-449.79
-509
-439.08
-470.93
-529.89
-513.7
-508.57
-479.19
-531.89
-527.01
-509.53
-466.14
-501.34
-476.68
-466.78
-489.34
-544.57
-527.93
-458.5
-534.42
-472.97
-444.09
-444.18
-513.15
-474.43
-457.95
-459.93
-413.65
-482.78
-429.55
-429.98
-454.26
-375.44
-403.53
-434.09
-424.27
-391.85
-338.89
-372.93
-338.63
-278.26
-271.86
-275.41
-321.88
-231.12
-249.11
-246.87
-223.1
-200.61
-172.61
-153.67
-144.57
-217.46
-148.37
-109.05
-160.33
-161.94
-95.94
-99.1
-65.74
-18.21
-9.27
16.74
-6.04
28.27
27.13
-3.43
72.07
112.84
86.91
83.07
124.16
171.92
140.08
139.5
160.58
156.46
185.64
235.94
203.17
211.37
210.21
240.44
291.42
263.23
262.99
344.27
300.39
339.9
300.92
331.59
362.99
335.42
381.04
354.58
361.87
387.6
417.15
456.18
441.21
486.14
488.75
440.83
438.82
428.97
508.85
509.68
479.79
523.88
442.74
536.65
520.67
514.27
535.79
487.67
455.86
531.4
490.44
510.63
546.93
456.11
520.87
451.39
443.06
500.3
431.91
464.12
458.05
465.55
488.91
459.46
472.23
411.49
462.72
380.06
461.71
456.81
366.93
360.29
395.11
387.04
393.79
368.18
350.94
335.11
272.15
303.59
1814.71
262.23
224.08
246.92
283.29
231.46
211.57
167.32
234.66
190.17
206.42
187.19
88.71
159.61
65.71
47.14
61.59
20.95
41.89
73.62
-4.03
-44.68
-64.21
-18.03
-92.08
-39.79
-92.28
-63.15
-147.7
-138.35
-183.84
-150.69
-160.46
-204.25
-187.45
-213.12
-185.49
-248.71
-290.18
-299.7
-298.99
-293.44
-333.45
-263.24
-289.18
-358.69
-319.85
-381.66
-340.97
-379.86
-336.19
-417.03
-388.52
-448.98
-409.26
-391.21
-427.15
-458.91
-464.59
-491.61
-443.15
-478.69
-465.19
-513.49
-449.5
-456.95
-500.19
-496.73
-458.88
-466.26
-498.57
-472.56
-529.52
-510.26
-518.18
-478.64
-495.07
-521.64
-451.67
-450.9
-511.73
-535
-486.6
-481.47
-472.83
-486.69
-473
-410.73
-415.65
-401.38
-394.6
-456.65
-450.93
-394.28
-430.15
-398.39
-391.67
-342.26
-379.38
-333.01
-355.59
-302.86
-316.29
-353.5
-297.36
-302.38
-278.63
-223.15
-247.06
-191.83
-197.55
-192.85
-167.2
-204.37
-135.61
-136.52
-117.21
-150.92
-104.09
-91.56
-26.99
-40.16
-45.78
-59.52
-6.97
-21.35
-11.63
1.22
7.01
105.35
105.48
44.82
137.7
128.96
178.4
126.51
118.79
138.86
237.27
201.06
233.89
251.45
291.54
212.1
302.81
305.69
309.85
350.15
296.84
287.44
336.49
336.08
315.76
330.89
341.81
423.43
381.49
374.06
461.79
399.74
414.08
490.39
416.98
471.56
413.18
499.38
463.35
2026.01
504.64
508.61
528.85
481.67
523.31
447.39
455.29
516.07
479.98
529.37
517.89
517.72
532.26
518.17
482.42
495.3
501.97
521.38
484.12
464.76
485.54
457.42
425.26
408.62
403.8
395.7
407.72
388.77
379.92
418.75
389.31
427.96
355.1
413.82
407.4
345.33
389.64
357.86
353.63
319.68
313.74
319.1
238.69
300.34
237.15
212.49
175.55
223.71
162.67
212.82
118.07
193.46
183.72
72.5
117.77
140.75
123.62
16.32
29.84
37.14
64.41
-19.89
-32.84
-25.9
-24.88
-44.51
-96.73
-76.75
-110.48
-131.61
-148.51
-150.38
-157.07
-183.43
-154.2
-204.07
-181.93
-192.28
-211.19
-277
-259.35
-310.69
-318.62
-291.44
-348.84
-286.42
-331.89
-359.65
-335.57
-324.4
-373.29
-370
-426.57
-418.85
-434.2
-470.62
-454.72
-469.8
-399.99
-489.06
-466.11
-474.03
-505.59
-484.5
-437.07
-526.24
-467.96
-475.2
-447.39
-526.13
-516.6
-509.59
-526.05
-541.02
-489.62
-477.44
-474.41
-537.13
-499.19
-515.79
-502.1
-490.25
-523.08
-464.34
-474.91
-475.02
-434.27
-415.93
-482.79
-412.73
-406.93
-455.72
-459.11
-412.49
-411.1
-365.77
-381.26
-392.81
-373.64
-376.77
-329.21
-357.85
-290.5
-281.69
-295.71
-248.9
-312.01
-219.84
-271.97
-268.48
-266.83
-246.35
-192.03
-171.01
-160.69
-109.88
-110.18
-81.95
-152.69
-45.42
-72.28
-101.03
-39.02
-13.1
-48.7
-26.87
1541.82
7.48
19.29
8.29
103.83
112.61
76.69
144.46
130.79
105.26
160.98
147.21
145.58
213.32
196.82
264.93
241.53
238.48
275.48
304.34
321.53
316.83
290.34
374.35
294.94
378.52
374.47
400.3
374.36
356.14
400.13
440.17
416.35
438.14
466.68
430.82
442.33
449.28
450.24
422.36
480.92
499.48
505.52
523.66
486.21
481.89
476.99
464.16
527.25
539.9
478.01
518.27
531.37
478.89
476.78
459.97
479.74
534.08
448.66
501.33
513.49
459.37
440.23
484.75
438.39
494.5
408.15
423.8
488.21
455.9
380
455.94
416.07
416.57
431.83
368.59
371.33
391.5
397.15
377.64
367.59
358.24
266.74
322.17
278.02
215.83
251.98
237.91
253.96
165.1
190.91
185.42
135.74
184.54
179.37
166.94
112.97
139.91
68.23
25.5
86.43
63.46
39.8
-0.62
-39.95
-69.7
-64.94
-93.32
-98.62
-105.41
-94.66
-143.45
-101.94
-147.07
-203.26
-134.52
-229.82
-161.83
-248.79
-217.87
-222.05
-223.34
-272.84
-246.02
-278.59
-283.55
-317.03
-318.49
-327.13
-351.18
-358.79
-353.9
-362
-391.71
-415.12
-383.02
-424.31
-409.15
-447.19
-442.04
-395.92
-434.96
-484.56
-470.17
-419.99
-520.31
-494.59
-494.29
-478.46
-530.31
-472.03
-526.59
-515.54
-505.09
-481.32
-503.25
-512.79
-515.67
-532.35
-456.36
-528.34
-459.33
-456.61
-518.04
-487.63
-434.74
1007.09
-497.03
-514.33
-434.22
-503.03
-472.84
-448.84
-477.4
-383.85
-425.42
-380.89
-436.24
-439.83
-346.2
-410.38
-351.32
-320.89
-303.77
-348.54
-306.47
-350.64
-260.57
-272.93
-261.16
-270.91
-280.78
-187.37
-260.91
-219.93
-153.39
-218.17
-190.95
-104.58
-117.26
-103.74
-85.97
-133.92
-60.84
-88.8
-25.57
13.94
6.87
23.9
35.91
48.66
79.74
111.31
108.89
124.5
62.25
157.48
92.97
114.96
197.32
211.93
168.78
223.83
185.07
210.76
208.91
298.58
290.37
309.57
252.86
279.04
315.06
321.27
340.58
313.05
346.02
416.13
419.56
400.39
390.85
382.04
447.27
473.71
447.99
431.56
448.89
488.87
508.87
492.8
511.24
474.93
517.3
478.12
444.24
535.2
496.47
495.89
543.66
530.64
548.26
493.63
465.56
544.3
458.4
520.16
475.96
508.34
500.98
475.1
503.92
479.67
443.9
442.68
480.56
467.64
439.29
448.53
427.74
426.64
370.54
439.61
407.67
410.82
382.92
398.62
369.99
339.69
330.96
282.98
274.37
313.91
327.93
236.88
274.93
250.48
242.22
270.51
188.95
164.32
176.57
222.26
163.46
170.34
143.39
83.43
115.7
40.98
50.66
62.44
-1.19
26.06
59.12
14.2
-13.23
0.5
-90.76
-72.52
-84.55
-57.04
-111.61
-138.73
-170.52
-175.09
-155.1
-208.11
-144.43
-164.64
-233.99
-196.74
-199.64
-270
-271.13
-321.94
1199.41
-290.51
-338.79
-302.65
-299.68
-308.7
-332.91
-343.2
-400.71
-437.97
-391.85
-438.4
-423.88
-444.03
-399.22
-430.29
-490.45
-501.24
-432.16
-439.67
-459.99
-461.58
-493.63
-471.45
-492.31
-509.3
-532.35
-505.96
-511.43
-533.64
-547
-460.79
-492.14
-499.64
-517.6
-498.86
-490.93
-478.79
-526.49
-524.68
-450.57
-471.16
-486.41
-485.24
-428.03
-432.6
-459.06
-491.97
-439.87
-378.9
-429.36
-423.38
-388.22
-345.74
-360.64
-390.73
-410.84
-335.1
-386.36
-326.45
-320.06
-306.1
-287.32
-295.03
-248.1
-267.12
-195.41
-230.22
-210.44
-162.79
-230.77
-226.59
-186.45
-159.71
-88.77
-135.16
-111.24
-131.54
-75.26
-13.01
-93.13
13.65
-63.98
-37.74
24.15
-12.01
82.59
109.57
53.47
42.82
124
88.25
102.9
194.9
178.69
139.7
181.78
180.34
262.39
281.9
261.02
257.66
277.95
271.76
322.92
353.05
334.62
289.54
292.66
363.07
396.74
382.84
367.52
400.27
445.43
365.39
455.31
385.57
462.93
439.86
469.82
423.85
496.61
509.13
464.85
483.85
498.91
497.49
438.88
476.78
475.78
448.04
533.56
449.77
492.3
522.64
458.17
511.03
458.43
530.38
499.99
456.69
476.6
489.11
529.08
446.06
434.71
459.67
458.09
460.48
451.47
407.33
411.72
435.09
470.72
426.42
384.2
423.11
348.26
401.16
389.56
382.72
383.4
347.52
346.85
297.81
281.72
1747.1
286.08
278.43
222.46
220.02
203.38
161.1
159.57
141.25
195.86
195.22
171.95
104.95
149.99
114.08
88.41
33.41
75.59
26.17
24.64
51.57
-32.84
20.7
-72.34
-36.97
-62.11
-81.21
-56.53
-70.55
-129.37
-171.06
-118.08
-165.23
-218.21
-245.91
-246.02
-229.24
-206.44
-242.35
-246.42
-236.77
-253.7
-354.89
-297.38
-344.04
-309.04
-346.14
-381.41
-378.74
-417.4
-393.99
-361.32
-459.46
-412.55
-395.73
-463.34
-426.09
-469.02
-454.95
-509.18
-503.2
-467.28
-478.89
-521.17
-518.57
-463.39
-486.06
-507.46
-514.32
-462.88
-529.54
-481.17
-474.87
-532.67
-533.38
-477.19
-545.73
-479.02
-517.38
-492.36
-436.69
-489.1
-437.93
-428.4
-481.34
-458.03
-446.36
-467.48
-408.81
-408.58
-463.8
-419.95
-390.44
-406.06
-370.93
-420.92
-389.96
-388.05
-358.4
-383.38
-307.16
-287.9
-288.01
-344.02
-315.02
-301.91
-311.26
-216.16
-225.26
-202.15
-185.66
-176.63
-207.6
-149.85
-138.5
-149.05
-116.51
-111.39
-133.4
-44.92
-106.2
-43.41
-39.11
-5.46
33.57
-8.91
-9.02
58.19
49.75
101.34
129.62
70.8
161.08
136.55
141.14
199.8
194.75
192.63
182.45
168.24
223.06
215.27
299.89
230.57
234.65
285.27
303.47
342.95
334.92
333.62
327.97
334.28
403.14
361.96
341.11
357.86
439.36
430.23
468.81
466.31
465.83
408.06
479.14
465.96
506.93
432.13
1996.2
479.16
511.58
533.16
474.81
497.69
521.52
469.77
482.41
459.31
543.5
531.86
497.08
527.61
465.87
451.09
446.31
497.61
468.48
500.67
493.14
479.14
475.46
474.6
464.4
441.12
428.76
406.93
448.35
407.32
384.95
450.58
392.61
415.73
370.03
392.92
377.71
335.73
374.05
323.52
290.35
298.63
316.58
254.9
276.69
216.82
267.6
237.17
175.79
187.46
228.94
157.63
198.14
177.35
140.89
141.14
97.87
93.07
65.61
19.09
10.05
64.25
-33.3
-49.74
-71.28
7.13
-73.84
-103.04
-76.1
-119.83
-91.04
-148.95
-188.43
-160.05
-208.65
-181.59
-207.91
-196.74
-234.91
-275.09
-231.29
-269.88
-316.86
-319.05
-321.9
-330.99
-342.56
-340.82
-316.45
-347.64
-390.78
-341.66
-355.24
-381.46
-372.06
-383.59
-435.8
-439.01
-472.6
-444.15
-475.2
-461.04
-511.46
-488.44
-500.23
-472.01
-512.22
-526.67
-506.48
-525.88
-487.81
-485.13
-480.43
-525.8
-478.92
-511.25
-524.32
-547.9
-481.2
-489.44
-516.69
-522.65
-503.13
-505.38
-510.59
-519.63
-519.38
-505.29
-423.52
-470.99
-426.7
-429.19
-388.48
-448.19
-380.32
-444.43
-436.12
-394.48
-353.39
-396.3
-362.83
-367.96
-331.95
-343.76
-279.93
-329.11
-278.82
-316.92
-234.79
-235.24
-267.63
-238.5
-251.46
-195.13
-228.21
-206.18
-195.51
-183.45
-170.06
-124.97
-80.71
-134.52
-98.44
-85.41
-65.24
8.12
-33.34
1460.42
-13.32
73.12
52.4
94.34
127.38
139.6
151.52
107.64
112.47
115.16
143.45
228.1
180.33
215.35
251.52
278.35
242.81
265.67
281.75
293.7
334.19
268.95
306.79
349.15
386.78
310.98
318.61
372.06
346.6
403.5
405.62
369.19
402.4
391.07
479.42
423.55
418.55
486.79
460.37
463.99
521.26
443.96
516.5
466.35
528
448.44
474.99
525.51
487.04
467.61
475.8
490.83
509.81
526.21
485.34
479.83
536.02
497.7
439.31
520.69
500.05
447.94
518.18
446.29
477.73
471.82
426.59
421.44
440.49
409
426.51
407.93
395.99
434.99
403.14
345.83
316.75
311.04
301.09
296.18
283.29
277.74
312.53
235.24
294.49
304.35
272.82
218.96
221.94
237.65
214.24
221.75
159.84
152.63
138.57
111.64
84.81
127.35
53.96
36.81
-0.76
26.47
-15.96
14.43
-17.96
-36.12
-22.58
-98.97
-57.73
-85.68
-105.37
-93.6
-119.9
-109.14
-178.69
-227.93
-167.22
-207.9
-226.81
-242.53
-220.2
-229.56
-270.48
-310.24
-278.58
-318.12
-309.82
-317.96
-345.26
-401.24
-359.3
-416.35
-380.68
-358.55
-380.48
-405.27
-452.06
-405.93
-469.5
-399.04
-496.14
-500.09
-439.29
-478.78
-501.22
-479.72
-500.27
-532.06
-507.29
-492.86
-533.22
-510.97
-496.41
-522.96
-470.42
-497.76
-513.88
-476.06
-537.09
-506.69
-465.38
-522.74
-519.24
-532.85
-460.78
-506.56
1042.57
-498.2
-484.54
-468.23
-432.39
-473.4
-449.78
-434.87
-370.11
-371.88
-372.73
-365.88
-399.13
-353.6
-316.69
-378.73
-318.82
-294.52
-325.4
-289.44
-297.45
-293.32
-265.24
-213.5
-201.56
-278.97
-187.24
-214.4
-159.61
-157.9
-126.86
-173.48
-91.7
-124.31
-92.83
-127.31
-85.75
-18.11
-33.22
-62.18
-31.82
47.42
-13.66
40.05
-1.42
96.56
29.79
91.8
99.51
139.44
119.63
114.83
122.57
209.17
173.73
217.65
173.75
254.27
241.8
263.64
318.32
284.47
330.31
337.01
309.69
330.02
357.29
401.2
348.76
380.87
334.64
387.34
426.79
382.29
373.66
461.21
424.52
446.2
447.25
497.9
438.67
506.6
511.39
449.32
457.79
436.77
504.43
468.22
540.05
503.3
472.99
501.59
479.57
494.04
462.12
463.06
450.76
461.28
455.92
539.97
469.21
468.24
477.46
452.09
463.6
471.42
501.44
492.48
424.68
412.46
432.65
448.91
441.08
452.89
394.32
365.63
386.64
338.34
351.88
385.01
370.18
380.23
284.36
287.39
287.04
331.95
244.41
222.07
272.27
211.92
269.89
208.38
221.73
158.42
168.4
170.36
100.73
115.7
142.93
63.72
100.27
26.92
6.83
14.06
21.51
30.23
-59.25
-68.02
-57.78
-76.82
-91.49
-83.38
-143.47
-138.84
-156.93
-173.76
-163.88
-218.37
-220.59
-159.39
-261.45
-217.08
-202.56
-298.31
-286.61
-297.72
1230.5
-281.31
-279.94
-336.96
-325.06
-400.68
-341.94
-361.25
-408.32
-364.39
-414.37
-452.82
-426.11
-383.94
-479.45
-445.95
-465.95
-414.73
-504.15
-503.77
-516.13
-470.49
-460
-490.59
-457.91
-441.33
-537.4
-528.82
-537.37
-468.57
-495.74
-473.39
-491.16
-456.55
-469
-508.61
-451.42
-476.02
-478.97
-495.23
-527.17
-458.64
-515.89
-446.95
-449.73
-440.36
-443.4
-452.4
-447.53
-389.3
-394.39
-407.34
-379.82
-430.62
-432.83
-372.6
-385.26
-332.63
-366.54
-324.6
-319.9
-353.76
-266.72
-274.53
-302.08
-214.69
-254.74
-221.95
-213.75
-214.67
-146.66
-174.92
-131.72
-115.57
-94.73
-138.95
-143.39
-95.04
-40.47
-32.93
-97.68
-57.08
-43.12
-14.16
-19.63
3.9
25.99
12.45
93.07
105.81
108.9
158.39
100.5
154.24
157.84
191.76
138.28
192.16
169.4
183.62
222.07
215.37
303.81
304.29
245.31
283.56
344.42
286.53
376.9
371.35
338.41
350.87
416.5
422.76
437.87
443.44
367.11
379.25
386.1
403.42
443.63
471.92
429.84
434.94
478.18
508.71
461.13
513.85
486.73
533.21
449.8
453.83
488.33
514.39
502.7
534.16
501.85
477.88
488.64
512.28
473.14
462.7
447.38
450.46
445.83
441.48
514.36
430.48
497.66
450.46
473.62
468.25
457.93
387.99
437.06
371.64
404.97
376.37
349.99
413.74
361.8
406.85
303.53
322.62
336.07
325.56
287.54
1779.68
270.64
246.86
252.28
202.4
239.93
164.95
157.3
219.43
199.79
128.28
142.93
174.29
140.94
84.32
96.26
108.53
49.07
60.67
14.37
21.31
32.47
22.93
-65.16
-21.53
-111.04
-90.37
-57.15
-95.69
-117.39
-140.75
-133.42
-169.79
-185.89
-199.82
-163.44
-223.08
-189.15
-259.21
-229.4
-292.04
-255.39
-310.26
-333.35
-323.47
-352.37
-358.93
-362.39
-339.42
-364.83
-367.2
-435.48
-451.05
-457.7
-440.84
-410.35
-441.91
-415.16
-405.62
-475.5
-447.89
-488.07
-487.8
-453.19
-500.58
-513.12
-536.4
-494.76
-474.14
-520.35
-483.48
-494.28
-473.19
-521.42
-494.66
-519.27
-475.26
-491.65
-465.16
-491.29
-489.6
-469.21
-491.71
-446.59
-464.6
-454.52
-458.19
-501.39
-485.1
-445.22
-451.89
-470.65
-382.5
-447.28
-431.08
-340.41
-349.09
-387.34
-311.08
-332.15
-322.93
-319.35
-281.25
-320.74
-251.96
-234.16
-311.27
-270.35
-244.24
-184.94
-185.9
-218.62
-203.43
-143.6
-182.39
-178.55
-150.55
-73.16
-68.44
-89.18
-50.88
-95.54
-67.67
-24.2
-14.9
-12.07
40.73
75.86
96.34
41.94
60.09
68.94
137.6
101.8
186.14
112.33
175.79
217.67
149.32
222.97
192.45
262.36
233.28
252.5
315.66
286.81
297.53
320.19
354.97
369.38
336.94
349.99
403.58
357.62
432.64
373.65
444.25
434.24
377.06
408.19
441
396.93
446.66
455.89
416.7
437.15
458.94
1978.02
499.08
450.51
445.25
509.17
535.76
463.13
543.68
450.21
501.92
527.54
484.87
455.53
455.43
476.85
537.9
461.9
445.72
476.37
486.69
520.08
482.59
453.01
476.54
458.12
430.93
437.63
456.44
458.16
380.98
446.66
362.87
355.92
429.61
367.63
345.04
397.98
337.1
311.47
348.43
305.37
245.57
268.76
308.76
219.55
210.17
234.95
251.16
216.08
169.76
224.36
205.26
173.11
95.24
79.17
74.5
124.32
34.48
82.01
51.34
24.07
-18.76
-0.34
-7.54
-7.8
-79.86
-94.39
-35.4
-124.87
-71.04
-148.72
-132.58
-165.01
-151.57
-164.04
-207.8
-201.58
-264.08
-242.74
-249.03
-283.79
-227.7
-246.29
-252.71
-299.09
-356.96
-357.67
-298.5
-335.03
-358.32
-339.4
-379.78
-380.64
-432.61
-430.11
-417.39
-450.15
-403.96
-438.35
-441.71
-415.69
-485.39
-471.99
-496.58
-492.79
-432.61
-510.15
-497.01
-500.25
-508.13
-535.35
-538.46
-478.46
-507.33
-453.61
-481.52
-483.38
-493.7
-500.35
-518.97
-536.03
-443.54
-441.33
-513.54
-512.37
-436.23
-473.34
-417.9
-479.98
-421.82
-406.7
-477.57
-382.52
-451.82
-459.21
-370.31
-411.4
-353.51
-380.64
-356.19
-350.84
-371.13
-377.31
-315.33
-324.4
-284.22
-332.65
-245.47
-294.65
-269.49
-270.37
-222.72
-176.29
-222.1
-219.55
-198.07
-136.64
-105.82
-154.22
-79.5
-132.41
-118.5
-60.44
-13.43
-59.99
-27.15
1520.26
38.16
-17.76
34.03
72.33
119.57
64.71
143.37
108.67
142.3
109
160.1
143.11
216.33
210.52
193.35
267.2
287.12
221.29
256.16
281.81
329.18
325.57
278.66
301.54
329.18
375.02
385.88
410.8
354.04
396
411.49
395.46
401.75
454.27
477.22
453.19
423.81
500.67
507.42
447.24
507.44
494.39
509.51
496.09
508.64
514.27
520.7
458.84
483.71
466.05
489.37
482.33
520.69
525.48
508.69
479.84
536.86
522.92
534.67
461.62
436.94
453.1
447.73
425.04
441.95
476.51
443.9
465.62
418.25
403.23
413.51
382.36
404.96
384.37
422.42
407.61
329.98
318.11
329.58
361.82
307.17
304.69
333.18
310.41
320.83
276.14
235.74
274.31
181.5
235.92
212.09
136.34
198.74
157.52
123.47
119.41
86.55
112.8
30.76
72.69
94.64
61.02
-30.59
-41.65
26.39
-41.23
-75.18
-27.91
-82.35
-117.93
-143.6
-145.73
-169.17
-179.87
-132.94
-217.66
-199.38
-237.54
-257.68
-246.62
-255.95
-247.43
-236.61
-278.51
-269.15
-286.62
-298.94
-318.3
-295.73
-333.63
-378.46
-360.89
-332.3
-369.63
-383.24
-454.25
-428.68
-474.68
-419.59
-393.82
-459.14
-408.43
-451.16
-441.58
-514.52
-516.6
-506.79
-435.16
-478.53
-520.59
-506.65
-472.68
-482.06
-508.45
-527.31
-504.98
-513.61
-493.53
-478.96
-475.03
-539.01
-477.44
-530.63
-478.96
-518.65
-526.94
1020.33
-497.36
-471.76
-501.44
-454.63
-488.71
-406.42
-426.76
-462.25
-423.9
-443.97
-435.69
-370.69
-376.12
-340.23
-381.13
-382.78
-286.01
-314.72
-290.46
-276.14
-291.96
-307.61
-223.55
-213.83
-266.01
-235.91
-213.47
-213.93
-140.84
-199.09
-164.75
-126.29
-155.25
-74.16
-47.28
-43.23
-17.54
-66.46
-84.32
-62.7
20.59
-36.23
16.01
68.65
82.18
108.13
76.16
146.81
145.34
87.3
161.59
131.75
142.54
210.67
193.64
192.52
256.8
201.23
275.45
306.49
232.71
246.19
345.86
300.96
343.72
383.43
339.13
375.29
324.5
397.64
414.38
436.64
391.99
459.87
417.18
398.66
422.88
478.14
421
477.66
485.66
432.62
453.32
528.24
447.86
506.03
497.47
486.14
511.6
533.91
467.2
467.85
468.23
538.19
486.7
512.32
502.95
523.75
466.12
471.41
529.83
481.55
452.52
477.11
431.14
482.28
484.92
484.52
459.81
459.32
460.77
467.42
391.58
398.27
381.88
404.68
403.94
387.23
398.02
347.41
321.67
305.06
297.44
258.21
253.55
318.55
269.21
242.32
262.69
209.67
236.85
221.56
188.8
206.29
114.64
165.99
131.39
156.22
60.84
73.69
62.01
23.31
65.1
52.68
-18.5
-54.61
-37.41
11.46
-31.7
-116.7
-94.88
-131.24
-112.53
-157.26
-189.14
-197.07
-139.13
-226.2
-199.28
-231.44
-179.12
-213.9
-281.59
-219.07
-319.02
-316.83
1193.73
-333.19
-322.8
-362.63
-301.02
-310.22
-407.75
-374.49
-356.85
-380.52
-421.24
-439.65
-406.12
-468.33
-446
-442.51
-437.4
-466.09
-459.74
-466.71
-461.06
-434.34
-485.31
-491.01
-465.24
-447.48
-520.09
-453.4
-458.47
-525.67
-488.19
-463.43
-487.04
-516.89
-540.03
-470.49
-527.18
-520.46
-459.04
-467.55
-468.39
-464.05
-490.61
-417.84
-462.78
-500.9
-479.62
-395.85
-456.46
-456.82
-370.66
-398.28
-352.33
-368.45
-406.93
-360.99
-395.22
-364.78
-374.87
-336.31
-291.14
-349.58
-260.79
-230.79
-297.58
-251.29
-201.16
-200.4
-187.43
-179.27
-174.63
-196.3
-117.51
-119.02
-150.45
-106.98
-128.09
-70.5
-69.7
-10.73
-64.78
-14.87
-6.34
39.49
38.95
64.97
70
104
38.44
71.38
96.22
97.59
172.72
146.37
135.24
205.14
166.57
194.55
249.04
271.28
232.49
264.67
276.44
255.03
345.7
330.15
365.94
312.19
329.18
339.06
391.33
337.99
379.97
423.67
430.93
426.41
459.52
413.74
464.26
492.58
435.85
475.07
447.54
456.22
460.74
443.71
490.08
483.54
459.96
457.79
512.98
502.72
513.04
532.5
476.09
537.17
451.64
500.46
457.16
500.65
487.6
516.97
479.28
440.75
439.84
439.84
510.5
458.27
457.48
494.26
480.45
431.16
393.3
382.14
398.14
414.91
396.67
421.12
336.56
402.11
373.61
335.38
328.14
331.48
349.13
281.66
1836.6
319.81
309.03
219.76
256.86
195.71
193.94
181.94
173.81
173.17
172.26
158.45
173.34
119.67
97.51
122.31
104.07
38.27
72.15
75.74
-2.68
24.7
-17.84
-65.4
-83.97
-78.44
-121.29
-137.14
-98.35
-136.21
-152.85
-140.37
-208.65
-145.39
-149.5
-160.9
-218.98
-240.81
-215.66
-268.16
-320.04
-254.02
-283
-315.35
-357.16
-303.63
-309.59
-363.94
-402.82
-328.54
-379.27
-394.96
-399.03
-426.48
-450
-400.49
-421.64
-436.21
-484.73
-462.48
-443.99
-472.65
-472.18
-486.75
-516.77
-475.36
-490.45
-487.14
-471.42
-535.64
-476.48
-538.87
-483.46
-515.5
-488.16
-494.35
-499.64
-507.88
-501.38
-522.34
-509.09
-460.34
-468.06
-469.27
-509.32
-426.53
-422.5
-421.42
-435.28
-409.83
-472.25
-381.43
-468.17
-436.32
-390.79
-381.47
-407.1
-379.18
-326.46
-327.99
-340.1
-332.31
-339.23
-356.12
-284.63
-287.84
-261.17
-219.59
-198.19
-197.36
-261.11
-226.38
-223.94
-168.73
-196.19
-110.86
-139.12
-153.58
-81.77
-98.13
-84.02
-31.81
-32.29
-1.61
-53.5
-49.67
26.63
31.34
16.53
56.22
26.52
49.68
112.63
94.4
149.02
112.46
184.72
211.36
143.17
217.1
220.91
217.6
290.41
221.03
299.74
244.17
266.88
337.66
342.21
351.44
310.8
400.65
394.57
371.15
426.34
364.09
378.82
435.8
395.51
415.3
397.17
411.56
455.64
432.76
437.32
422.4
447.55
1969.94
457.75
493.31
453.11
472.1
475.21
530.93
479.98
511.15
501.47
531.62
543.36
458.21
532.21
504.69
483.69
497.72
519.07
496.84
530.62
496.38
499.33
433.07
420.5
498.73
430.52
450.68
436.44
407.36
411.97
367.25
437.33
413.93
351.31
335.99
362.42
351.27
301.13
306.33
368.78
296.28
305
317.01
302.08
235.94
218.44
283.08
262.6
206.65
152.6
140.51
196.77
176.79
126.53
165.62
141.7
120.41
47.58
74.26
97.26
54.03
-23.36
-5.07
-31.1
-71.37
-91.4
-41.56
-117.76
-127.15
-89.21
-110.88
-170
-162.14
-110.69
-210.17
-224.18
-167.21
-199.54
-262.92
-278.16
-304.39
-281.78
-260.32
-306.17
-321.69
-270.97
-298.46
-340.29
-397.66
-402.87
-348.86
-339.29
-345.66
-443.88
-396.51
-378.54
-449.85
-389.97
-395.68
-413.75
-470.9
-502.56
-469.53
-446.53
-442.12
-487.56
-479.22
-469.08
-499.52
-449.62
-544.96
-492.29
-490.72
-482.29
-527.83
-498.47
-464.42
-462.55
-541.35
-474.96
-467.5
-474
-500.15
-480.1
-479.63
-479.28
-426.52
-435
-499.69
-481.96
-493.21
-463.36
-401.46
-384.03
-404.56
-372.25
-412.69
-367.02
-334.93
-381.74
-366.99
-357.74
-376.15
-357.04
-305.38
-292.34
-248.03
-292.43
-280.96
-268.59
-197.68
-267.89
-215.72
-209.42
-178.83
-210.39
-173.9
-169.06
-125.73
-120.32
-123.2
-105.1
-44.97
-3.29
-35.13
7.57
-35.68
1522.85
-0.81
-7.54
33.51
107.97
87.96
111.3
110.86
107.71
94.16
192.47
169.87
177.47
249.25
170.91
209.12
199.2
219.34
310.2
264.43
290.45
291.74
347.62
344.91
355.73
346.41
382.79
382.44
370.24
370.05
378.96
366.17
445.78
418.13
438.79
412.31
425.27
417.76
508.86
420.24
496.44
513.07
497.86
440.56
447.14
491.33
495.36
459.37
543.21
451.67
547.21
541.42
467.97
525.79
535.77
527.15
477.01
494.77
472.9
455.23
495.23
526.72
458.92
512.37
482.8
436.68
470.95
467.9
486.11
425.86
425.14
365.88
387
363.27
377.12
356.57
382.69
359.32
368.38
318.09
320.57
354.29
293.9
248.01
263.5
237.96
263.25
253.38
215.75
207.66
175.62
156.68
173.57
184.76
137.29
153.62
95.17
99.42
91.32
51.95
72.63
-7.02
-20.23
39.79
25.22
4.25
-35.64
-15.34
-56.82
-124.44
-51.68
-103.45
-128.88
-163.13
-136.46
-201.33
-166.5
-196.47
-197.22
-271.56
-267.94
-220.89
-306.09
-288.26
-239.89
-348.44
-350.95
-319.53
-297.13
-328.11
-358.12
-414.58
-349.27
-427.3
-397.67
-404.01
-410.43
-395.51
-400.5
-451.5
-478.73
-493.77
-415.46
-443.07
-448.7
-516.04
-469.2
-529.36
-473.28
-451.45
-479.34
-450.26
-532.46
-497.94
-520.75
-495.71
-476.92
-534.13
-547.11
-474.65
-480.6
-530.79
-485.04
-484.58
-513.59
-519.42
1064.33
-471.49
-453.39
-445.96
-477.99
-488.56
-454.53
-386.5
-453.79
-371.51
-423.63
-394.04
-399.05
-352.12
-414.72
-322.51
-365.45
-328.24
-364.83
-310.95
-283.33
-249.16
-269.31
-267.76
-233.47
-260.74
-222.68
-183.34
-201.49
-157.33
-131.32
-170.35
-104.08
-97.67
-139.22
-98.06
-46
-95.19
-34.07
-25.79
-11.64
-5.07
-27.77
-19.09
82.23
88.01
47.6
107.15
85.56
156.43
78.01
95.9
181.74
124.75
152.86
175.33
200.99
268.6
279.75
221.2
220.45
318.7
283.45
297.26
270.75
316.21
365.63
357.67
380.4
326.81
417.63
419.24
417.42
384.51
371.47
396.19
394.92
455.79
397.6
442.75
488.63
458.98
468.61
481.83
442.55
522.72
489.09
507.91
499.95
540.26
514.89
479.48
453.41
459.86
538.24
526.89
482.85
518.05
481.56
451.15
486.27
512.72
451.32
455.05
428.55
488.67
444.8
458.64
461.27
452.62
419.57
419.23
467.11
379.17
424.98
392.43
387.95
430.32
393.62
363.86
379.58
357.35
313.88
282.34
266.5
297.38
236.25
242.94
292.96
244.02
190.97
244.38
174.93
223.43
176.86
193.42
147.46
168.4
78.99
84.32
134.78
82.55
61.55
-5.2
76.02
48.41
-15.7
-8.01
6.45
-53.73
-16.07
-119.37
-122.52
-80.3
-148.47
-100.42
-160.7
-129.81
-165.49
-197.92
-179.52
-179.14
-205.04
-290.47
-221.82
-307.88
-261.6
1182.28
-315.89
-346.3
-350.84
-370.58
-402.82
-351.18
-357.13
-355.22
-351.64
-385.75
-421.81
-378.96
-407.71
-469.7
-421.83
-450.56
-487
-510.47
-505.78
-446
-503.83
-454.54
-460.15
-459.55
-524.99
-446.25
-519.37
-511.52
-459.97
-458.39
-466.99
-544.4
-543.54
-470.66
-480.55
-506.36
-491.13
-476.01
-500.35
-460.02
-472.66
-487.33
-452.77
-493.71
-406.96
-443.68
-476.57
-402.38
-456.57
-393.74
-394.53
-391.83
-359.04
-381.4
-331.01
-327.46
-366.56
-353.42
-314.17
-342.2
-303.6
-337.56
-305.19
-258.34
-252.28
-270.37
-219.02
-201.49
-172.24
-155.08
-196.47
-170.77
-181.35
-123.46
-137.01
-123.71
-42.28
-92.43
-81.52
-57.24
-9
-56.88
-48.07
21.59
66.01
85.72
41.39
91.44
124.76
81.29
77.82
137.54
136.38
174.95
206.5
201.93
155.89
176.98
204.79
286.9
282.47
237.66
302.65
257.94
292.42
351.41
331.62
352.61
385.02
340.36
364.52
345.22
402.8
368.79
404.1
429.4
396.52
429.57
393.39
481.85
457.35
450.91
474.18
447.28
458.02
452.73
529.65
509.79
536.37
451.74
540.42
467.25
454.95
497.2
543.13
534.82
485.43
543.54
472.27
476.68
473.88
511.84
494.73
459.48
524.13
505.88
489.02
498.61
499.28
446.49
437.15
437.3
449.74
390.51
383.13
440.75
419.15
369.58
337.45
346.39
374.28
368.15
293.37
364.62
312.06
291.91
1812.73
265.85
249.17
258.34
233.18
186.81
214.21
185.23
221.41
147.52
173.5
88.96
156
85
48.76
47.05
46.36
40.44
-6.66
-28.05
0.29
-4.76
-37.26
-1.45
-39.66
-92.92
-55.8
-96.17
-122.7
-115.21
-140.89
-119.54
-201.76
-208.88
-210
-210.99
-246.22
-245.97
-230.04
-267.13
-276.38
-322.24
-270.57
-354.05
-325.39
-311.79
-357.34
-348.97
-356.75
-420.04
-362.74
-405.59
-456.1
-450.48
-385.68
-437.64
-458.29
-472.23
-457.13
-452.76
-449.76
-482.15
-432.44
-499.22
-440.91
-457.98
-446.75
-455.36
-485.24
-522.87
-493.75
-467.88
-510.03
-499.77
-499.52
-547.72
-520.98
-496.37
-449.52
-480.42
-466.23
-505.8
-428.86
-512.11
-443.96
-482.05
-491.64
-487.55
-407.62
-460.73
-397.35
-387.82
-388.57
-378.06
-346.36
-359.31
-423.71
-391.77
-307.75
-321.2
-376.39
-341.93
-286.43
-253.04
-282.72
-228.45
-267.19
-278.55
-245.65
-197.46
-247.96
-191.44
-177.48
-205.22
-192.71
-169.25
-113.39
-74.01
-97.13
-117.92
-80.99
-1.46
-23.39
-2.93
-44.25
46.44
-1.5
61.86
58.18
100.64
40.59
143.7
143.13
154.56
142.48
166.69
164.47
194.57
154.63
188.09
254.09
246.42
289.16
298.88
325.84
244.52
312.35
328.92
303.95
342.5
349.45
312.26
364.86
409.57
427.52
358.82
360.83
458.43
388.58
391.42
398.5
461.3
462.02
461.34
504.56
438.9
1937.44
450.9
493.59
438.39
451.51
518.8
518.21
508.61
527.97
516.67
508.85
470
460.31
512.27
519.05
528.22
491.89
459.89
437.38
469.79
493.19
524.12
497.75
491.72
430.17
426.68
397.76
405.27
455.98
432.95
450.45
384.52
384.65
359.56
423.69
397.39
341.9
361.95
369.39
280.18
310.31
285.95
262.18
277.3
220.23
245.36
273.15
273.92
189.72
188.02
212.59
143.17
141.76
122.19
87.36
149.08
83.87
80.72
34.64
68.48
10.22
-4.5
53.1
36.73
-70.8
-36.47
-83.27
-49.04
-57.21
-136.82
-72.27
-90.61
-184.94
-192.71
-201.52
-141.31
-200.81
-195.73
-178.24
-211.19
-281.6
-222.08
-278.61
-281.46
-260.09
-309.67
-275.99
-317.95
-341.49
-356.75
-324.02
-398.22
-356.61
-374.35
-425.42
-429.45
-423.73
-441.09
-398.7
-427
-436.02
-418.26
-442.42
-445.29
-500.55
-516.13
-467.46
-440.84
-492.26
-502.65
-531.67
-490.3
-524.12
-526.56
-471.85
-464.55
-492.72
-477.75
-465.76
-505.75
-473.99
-441.06
-507.35
-453.7
-437.86
-464.72
-503.11
-437.47
-433.77
-447.83
-441.05
-428.4
-473.83
-410.01
-419.66
-404.24
-429.66
-346.85
-340.72
-368.34
-361.26
-317.5
-335.53
-375.32
-321.29
-301.35
-326.08
-287.85
-284.46
-265.98
-240.31
-226.82
-200.6
-168.11
-219.49
-214.93
-142.18
-147.09
-111.73
-139
-71.16
-58.94
-116.22
-71.27
-69.84
-44.45
-15.93
1475.9
47.15
76.75
71.69
62.09
105.68
74.74
139.2
155.86
168.75
186.26
216.36
170.52
212.69
162.69
271.19
268.06
281.76
290.55
282.59
327.4
283.17
293.19
342.5
285.17
325.62
322.81
396.14
410.6
417.7
387.9
449.15
405.93
457.86
401.8
478.25
448.42
451.04
466.19
420.41
500.25
503.01
440.95
529.46
445.66
517.08
484.74
533.25
513.12
530.25
465.75
469.04
508.05
525.3
491.84
517.29
530.33
529.38
485.69
470.26
460.97
473.21
498.12
518.01
418.62
433.47
418.95
431.01
458.54
457.44
474.92
408.6
408.54
426.2
408.34
386.23
339.44
384.78
319.21
353.07
338.86
333.5
332.78
318.98
327.96
284.69
305.85
282.68
238.87
187.62
194.76
217.89
166.2
179.35
187.54
150.32
141.34
118.07
98.71
39.99
56.25
87.93
26.08
-11.33
-17.67
-17.41
-69.6
-81.63
-94.16
-122.11
-78.98
-150.76
-139.27
-126.43
-122.46
-172.92
-173.14
-148.16
-205.99
-223.78
-233.44
-235.5
-222.73
-227.2
-269.44
-278.08
-331.52
-271.86
-381.92
-368.99
-305.85
-375.93
-413.41
-435.17
-444.25
-356.31
-390.81
-385.48
-450.1
-415
-483.19
-410
-498.01
-470.83
-486.31
-429.36
-461.98
-463.78
-454.44
-527.42
-488.87
-522.95
-484.12
-456.77
-493.56
-504.41
-503.94
-471.29
-459.32
-465.48
-451.11
-479.2
-456.68
-538.51
-507.01
-466.01
-464.49
995.31
-511.52
-498.18
-427.47
-441.7
-433.43
-425.14
-378.09
-467.94
-459.33
-414.97
-413
-398.24
-343.1
-341.99
-402.16
-295.89
-336.8
-316.93
-329.82
-331.23
-330.19
-257.09
-212.32
-284.76
-227.87
-202.62
-220.11
-155.1
-221.03
-187.21
-171.81
-101.54
-135.02
-80.12
-59.09
-42.86
-77.51
3.82
-27.07
-3.02
18.1
4.33
-11.79
-2.76
28.17
67.19
94.62
85.02
163.22
169.51
117.59
153.05
198.43
143.05
164.89
218.36
188.62
208.43
209.59
263.55
257.39
269.34
322.26
356.95
314.81
316.56
388.53
344.1
372.83
388.92
429.21
361.1
433.51
403.62
379.52
479.73
429.81
436.99
436.41
412.47
427.45
480.02
478.85
446.73
511.62
511.36
523.77
455.31
459.72
534.59
488.6
470.76
452.24
453.75
508.11
489.43
504.39
540.53
522.25
464.72
499.84
446.56
463.85
459.79
420.47
443.94
448.03
435.43
405.13
480.19
444.71
427.15
440.4
447.47
412.44
399.57