39.53
75.32
65.14
30.36
24.96
63.66
77.33
86.7
102.08
94.11
81.73
66.53
27.58
-21.9
-60.43
-91.2
-126.83
-149.96
-131.06
-98.18
-83.86
-66.76
-29.19
15.44
-10.03
103.98
455.52
260.89
-282.22
-199.66
-88.77
-244.68
-161.99
-99.51
-89.39
22.34
43.95
-6.88
-27.25
-21.21
3.72
32.93
52.07
48.57
36.1
28.34
4.21
-32.96
-58.91
-67.59
-75.05
-87.33
-77.33
-44.96
-1.68
48.04
81.29
105.61
127.65
125.95
92.95
253.01
552.39
246.77
-267.98
-107.09
39.83
-41.8
74.13
108.83
115.56
202.84
189.09
137.98
132.75
197.53
312.97
376.03
381.16
369.46
332
283.79
236.05
185.08
151.95
131.09
106.3
83.41
58.41
30.33
7.52
-8.36
-28.69
-62.88
-94.86
-118.19
-150.27
-236.87
-155.45
123.28
-152.84
-634.64
-453.44
-306.87
-366.14
-282.56
-385.88
-444.75
-294.98
-282.11
-356.56
-359.12
-368.41
-342.3
-215.95
-175.86
-292.17
-373.59
-277.5
-114.55
-120.86
-267.7
-348.62
-300.3
-211.19
-219.13
-336.03
-426.02
-362.78
-236.02
-230.5
-287.69
-372.37
-385.22
-87.33
54.23
-256.16
-401.28
-365.91
-371.47
-211.94
-101.05
-159.94
-180.36
-160.29
-118.49
-71.16
-101.17
-189.06
-181.17
-45.07
25.75
-44.79
-103.47
-17.48
73.4
0.27
-42.73
52.36
29.37
-99.96
-14.28
150.79
85.65
-1.31
103.12
192.51
80.09
-5.75
252.28
409.52
31.55
-123.56
169.34
227.84
175.1
175.51
171.53
343.03
465.58
893.02
1987.06
2145.95
966.75
270.7
295.89
451.91
399.2
-0.77
-115.17
-139.84
-343.47
-360.28
-352.8
-384.23
-343.08
-330.25
-344.45
-169.91
127.94
-84.67
-471.72
-276.91
-177.34
-287.05
-122.75
-50.73
-89.55
-91.33
-101.5
-43.42
18.58
31.16
43.47
37.52
37.91
70.53
78.23
87.48
145.27
253.11
325.52
352.84
377.94
355.31
320.14
260.19
283.7
449.86
298.58
22.72
157.31
180.25
54.91
151.64
148.95
40.22
6.02
13.2
50.5
79.06
80.28
78.69
57.06
65.81
101.11
85.17
79.98
80.84
74.37
79.5
67.47
31.62
31.19
68.48
125.05
152.95
-50.27
-195.11
-88.84
-67.28
-29.34
76.16
52.62
-13.77
-38.13
-32.27
-14.24
-49.8
-84.91
-77.54
-76.27
-60.48
-44.94
-29.91
-6.91
15.91
22.55
14.55
15.93
2.78
155.13
456.25
219.15
-221.36
-15.41
83.16
-64.19
77.04
93.8
11.94
-1.89
-31.2
9.81
41.79
12.89
3.03
0.35
17.97
37.25
-13.86
-16
-20.83
-26.81
27.09
-4.3
39.66
61.01
99.93
372.29
223.03
-153.3
-57.43
66.66
41.87
-16.48
-70.71
77.62
173.35
49.92
-57.71
-67.28
26.13
148.51
126.48
-0.96
-54.25
22.01
111.81
80.1
-48.06
-145.78
-126.55
-60.62
-42.88
-23.46
-3.39
-37.45
-73.08
-70.75
-111.17
9.5
350.87
90.09
-494.83
-370.39
-233.56
-379.19
-257.31
-205.58
-229.2
-110.97
-65.92
-99.92
-139.7
-153.42
-123.52
-137.11
-177.84
-182.2
-193.62
-235.95
-279.59
-313.72
-332.52
-336.73
-341.92
-333.8
-296.86
-248.69
-202.77
-168.34
-151.2
-131.06
-126.2
-164.36
-6.44
266.75
12.36
-337.72
-171.48
-156.78
-288.52
-202.83
-199.12
-100.87
181.59
230.36
85.56
39.19
48.91
52.43
68.6
51.91
37.77
43.12
30.08
20.77
9.38
-28.8
-75.5
-121.52
-166.09
-190.46
-188.5
-174.47
-147.59
-97.62
-43.79
-56.69
80.18
423.68
220.91
-248.41
-114.72
-42.47
-196.57
-110.38
-102.5
-122.45
-28.45
-4.46
-19.92
-37.07
-28.13
9.16
17.75
48.91
98.2
122.74
156.25
181.77
186.7
191.18
174.19
148.91
137.77
108.51
66.23
38.95
12.17
-7.87
7.73
3.53
36.16
294.64
423.06
132.79
28.91
174.24
107.45
49.12
80.35
51.94
84.79
113.71
48.77
-4.98
3.28
48.39
92.12
124.71
151.62
163.66
173.87
193.29
206.47
216.52
251.49
267.14
211.59
149.7
114.37
70.4
29.22
9.79
14.97
27.05
-20.87
36.38
390.02
432
-55.09
-173.45
14.53
-42.54
-32.26
67.59
89.27
140.49
153.15
126.72
96.71
-6.29
-109.84
-145.87
-157.12
-167.82
-174.21
-141.12
-68.3
-18.84
4.47
38.58
59.02
69.04
94.57
86.31
38.66
-7.62
-61.02
-96.63
-95
-74.59
-42.02
-20.54
1.05
41.23
45.88
40.15
275.02
541.77
211.89
-154.39
7.85
16.52
-93.49
-23.11
-60.29
-95.99
-60.7
-57.04
-42.91
-78.27
-132.17
-93.21
-23.18
14.04
45.05
64.44
56.43
45.78
43.31
27.86
-11.07
-40.51
-41.12
-53.69
-76.48
-56.8
-8.46
45.48
116.62
166.84
169.26
164.03
159.29
148.55
154.16
128.57
19.88
140.48
468.47
218.47
-185.45
-11.87
-9.06
-169.05
-90.17
-129.96
-151.43
-65.89
-44.92
-9.83
-14.39
-80.35
-91.52
-84.17
-104.16
-114.7
-127.23
-159.19
-192.69
-224.44
-260.95
-298.6
-313.61
-285.63
-236.51
-207.16
-190.74
-161.77
-136.73
-127.58
-124.77
-116.95
-83.94
-57.25
-84.79
-120.74
-128.45
-144.18
-212.02
-113.95
253.85
187.79
-238.15
-165.63
-25.64
-110.52
-39.98
-10.25
-25.57
25.91
-0.34
-57.35
-114.5
-179.24
-194.65
-207.15
-233.03
-267.53
-338.95
-348.07
-255.04
-171.61
-109.65
-40.04
10.28
61.4
118.26
154.97
190.39
175.52
62.58
-8.03
5.46
-16.56
-17.41
36.02
60.17
90.32
130.35
102.3
234.45
652.21
622.68
92.31
10.15
204.29
210.88
208.21
116.21
36.63
166.28
239.37
123.43
-1.89
-37.09
42.64
149.34
136.93
33.92
-51.92
-1.85
136.52
143.2
23.4
-75.89
-78.02
25.2
106.95
65.35
-40.52
-77.61
37.05
404.02
1212.81
1929.56
1846.81
1351.71
553.12
-313.23
-380.78
-335.82
-656.24
-594.2
-481.21
-587.54
-591.51
-602.77
-586.95
-544.05
-513.12
-442.21
-387.36
-330.55
-279.6
-215.19
-155.87
-137.31
-128.02
-131.83
-134.23
-75.5
0.67
5.4
-1.47
-25.7
72.54
300.38
108.48
-234.37
-88.59
-2.77
-112.06
19.29
84.89
-3.55
-48.07
-48.72
-40.57
-34.56
6.37
15.77
17.73
8.14
25.98
69.71
15.33
5.71
1.27
-51.58
-46.16
-42.81
-59.24
-56.33
-45.94
12.79
130.39
-30.05
-235.95
-73.31
-11.44
-53.24
52.29
135.79
437.38
964.5
1036.55
744.1
692.7
675.09
497.38
359.97
254.18
130.98
51.52
-6.21
-69.36
-120.02
-155.4
-179.26
-203.3
-218.77
-181.31
-53.69
-92.94
-314.4
-329.48
-239.81
-250.44
-205.71
-129.95
-141.78
-195.8
-240.93
-204.56
-163.5
-188.6
-179.12
-126.7
-92.19
-95.78
-102.98
-104.74
-126.65
-172.82
-160.5
-125.57
-142.96
-157.94
-194.29
-75.08
202.68
61.82
-297.43
-204.2
-108.86
-201.25
-109.76
-43.94
-73.58
-112.36
-147.59
-123.07
-121.18
-160.75
-104.22
-47.19
-92.21
-67.82
-46.6
-85.76
-90.61
-82.57
-67.63
-16.43
38.31
3
-54.15
91.31
377.22
120.74
-257.72
27.88
13.57
-135.98
181.38
122.39
6.43
222.15
114.17
-72.6
103.7
169.61
6.17
80.55
213.49
81.53
48.27
215.84
172.87
40.35
181.56
266.74
113.89
170.11
311.41
210.59
221.55
474.41
523.7
202.97
75.68
206.74
43.95
-0.55
183.55
40.05
-30.26
90.28
-62.02
-178.9
-8.46
5.52
-165.03
-74.75
53.13
-95.2
-101.41
49.55
-57.86
-153.21
27.58
61.7
-104.62
-17.73
96.78
-99.19
-11.64
397.51
204.69
-152.87
56.66
126.46
16.36
109.82
107.95
78.55
102.41
31
-68.33
-125.74
-125.24
-87.67
-54.25
-10.93
46.08
92.23
124.2
146.24
161.03
161.68
144.22
134.5
140.62
134.55
120
116.65
93.8
32.56
-17.03
-40.69
-73.36
-140.13
11.96
384.66
183.08
-227.55
-18.29
44.29
-104.6
-10.61
-65.14
-133.1
-54.44
-25.98
-12.29
-25.86
-32.64
15.96
16.15
-26.19
-56.95
-84.36
-86.69
-94.42
-126.95
-135.28
-125.87
-104.8
-69.33
-59.73
-62.02
-52.23
-49.34
-63.72
-104.55
-149.28
-179.58
-228.2
-293.24
-340.88
-356.16
-365.67
-170.52
185.3
-41.48
-451.69
-243.37
-151.82
-254.41
-129.91
-141.18
-166.15
-66.28
-23.02
-10.05
-53.58
-90.5
-52.41
-25.27
14.63
70.02
90.33
107.68
117.15
103.11
89.27
79.38
73.89
76.7
61.41
18.37
-10.37
-35.81
-84.75
-120.2
-136.67
-140.23
-113.15
-122.5
35.15
435.8
315.11
-83.74
71.48
122.24
-42.8
20.82
-37.54
-126.27
-84.49
-106.7
-170.67
-222.33
-208.62
-126.54
-60.44
0.46
69.21
106.12
122.51
153.52
183.59
176.73
140.89
99.89
51.35
-3.31
-55.68
-100.03
-111.48
-91.14
-67.13
-37.03
5.28
46.53
28.23
173.25
542.43
346.54
-159.12
-64.62
-13.13
-185.34
-119.94
-130.19
-151.17
-53.16
-46.47
-69.37
-76.55
-69.29
-11.38
22.7
23.12
32.01
33.46
35.13
42.23
42.43
39.34
8.29
-50.93
-88.5
-120.06
-163.44
-170.4
-145.63
-126.23
-95.61
-45.02
-8.1
6.62
17.32
24.3
-9.37
148.85
490.5
176.13
-406.41
-231.7
-77.13
-193.19
-31.68
37.79
41.68
170.97
187.96
129.26
103.84
127.09
172.55
179.31
174.83
159.32
111.26
62.78
17.68
-23.83
-48.54
-48.26
-27.7
2.25
57.87
119.16
164.46
223.3
268.4
268.22
259.38
269.54
269.59
198.48
318.07
657.46
366.53
-169.13
88.92
279.05
121.66
254.16
293.01
236.69
315.52
282.18
169.79
76.91
6.74
-25.86
-83.33
-146.16
-180.21
-220.5
-235.15
-200.87
-163.11
-130.97
-85.6
-52.53
-44.8
-31.2
-18.82
-12.92
-1.63
3.71
-2.06
-35.47
-77.98
-99.13
-174.07
-84.99
256.46
73.81
-387.2
-205.5
-30.1
-115.25
-1.22
39.66
25.99
99.81
105.93
65.61
10.76
-22.55
0.78
8.16
-1.1
-15.18
-59.74
-102.42
-136.48
-153.55
-115.21
-61.78
-34.06
-13.59
2.99
11.02
16.63
23.87
36.72
36.55
11.86
-11.87
-34.15
-100.73
13.01
333.59
91.66
-409.02
-286.73
-207.56
-299.52
96.7
839.13
1517.77
1559.13
769.22
-31.49
-219.31
-302.95
-459.82
-280.19
-261.02
-571.05
-385.62
97.8
132.78
-6.98
-46.1
-158.2
-258.83
-274.41
-305.77
-386.08
-345.39
-168.02
-313.36
-601.28
-485.89
-420.86
-481.55
-334.53
-299.34
-371.62
-372.06
-359.75
-354.45
-311.78
-267.97
-263.57
-214.09
-189.15
-215.31
-233.1
-239.66
-230.44
-197.25
-158.31
-179.01
-10.21
319.66
79.61
-318.72
-61.07
72.25
-52.99
71.66
90.17
29.52
24.25
20.31
66.43
64.4
22.85
17.83
21.4
38.38
44.76
24.25
41.62
11.12
-29.8
-14.44
-0.35
-7.53
166.68
522.49
249.01
-199.71
34.91
132.09
46.59
196.18
244.83
199.39
137.95
86.82
139.11
168.32
175.12
233.2
244.52
254.73
278.58
254.06
213.34
206.5
221.42
281.67
364.34
290.73
379.83
688.77
443.67
14.44
173.05
253.05
110.63
202.58
187.42
65.68
5.95
-72.91
-91.73
-79.64
-83.98
-132.69
-110.89
-38.43
-20.82
22.48
-3.06
-22.37
16.96
10.28
8.47
15.94
-46.99
71.55
435.55
164.65
-322.98
-82.95
21.34
-79.59
147.44
167.58
-27.02
36.83
78.2
-85.02
5.91
147.62
-49.45
-129.26
57.51
133.98
57.66
-58
-84.69
66.43
168.9
75.58
-47.28
-39.03
99.33
177.27
68.13
-66.75
69.96
324.8
152.62
-166.4
-175.8
-147.4
-49.95
101.19
26.66
-75.73
-58.38
5.92
63.26
2.22
-136.91
-132.08
33.99
97.9
-13.46
-135.95
-131.3
14.1
91.74
4.36
-81.87
-19.67
189.61
307.82
173.36
10.33
36.13
179.65
303.61
157.79
-210.13
-210.97
-4.66
-130.75
-296.12
-245.43
-95.8
11.58
-84.59
-297.63
-373.22
-237.9
-96.98
-107.41
-148.82
-160.37
-193.59
-189.31
-136.24
-118.09
-118.97
-98.25
-87.86
-76.36
-48.02
-43.45
-46.18
-31.34
-49.25
-104.04
-162.73
-238.72
-325.87
-173.16
135.51
-178.48
-669.92
-517.66
-436.46
-432.77
-206.12
-219.87
-206.73
-66.2
-85.78
-125.45
-144.28
-158.17
-141.95
-148.19
-159.47
-164.7
-168.96
-141.04
-96.31
-54.12
7.32
77.83
125.47
155.88
170.12
169.73
188.99
210.02
182.27
98.93
4.85
-11.7
263.06
632.22
310.02
-106.55
247.31
288.09
11.67
264.96
306.8
85.41
211.89
212.11
-15.06
90.56
271.89
120.62
42.38
214.34
176.42
-6.9
108.5
172.66
-52.51
-17.89
163.59
34.53
-38.36
129.66
68.16
8.79
413.29
357.63
-240.45
-108.59
179.36
-62.5
-50.75
162.07
90.75
-38.02
42.42
82.06
-48.35
60.23
215.98
23.64
-21.07
184.82
129.96
64.55
327.59
391.7
164.61
237.45
343.27
109.12
50.33
177.86
70.38
74.63
267.26
37.32
-279.54
-85.24
17.94
-213.09
-189.12
-30.48
-182.83
-369.18
-241.77
-185.88
-359.92
-268.2
-133.29
-320.35
-302.17
-83.4
-169.96
-257.27
-76.52
-86.39
-282.77
-155.77
-14.56
-188.26
-202.07
109.52
322.65
12.8
-135.45
432.18
714.58
617.43
541.74
304.63
285.07
230.94
-144.81
-169.37
25.63
-51.81
-188.51
-260
-218.49
-52.62
-23.35
-145.86
-255.73
-292.35
-200.86
-75.21
-38.63
-70.48
-150.43
-192.53
103.79
508.7
113.39
-455.27
-110.16
163.26
17.66
52.79
-33.02
-46.94
154.94
84.4
-123.86
-208.35
-154.12
26.93
76.05
-63.06
-148.76
-85.48
50.39
98.67
33.23
-2.75
71.45
173.96
167.67
73.65
-24.9
137.94
562.35
338.91
-325.54
-263.98
-8.16
-92.17
-137.04
-257.47
-330.72
-200.62
-218.87
-395.62
-509.54
-502.23
-360.76
-258.72
-331.95
-428.59
-378.13
-201.15
-118.87
-232.08
-355.75
-323.11
-178.64
-116.53
-225.02
-348.83
-333.82
-134.89
141.87
74.56
-299.77
-300.35
-17.72
40.07
-18.49
-66.45
-18.95
188.66
247.48
79.04
-32.27
36.78
223.77
320.58
215.11
94.99
147.84
307.59
352.39
220.37
96.95
175.8
319.55
239.4
49.34
10.11
83.6
286.66
505.19
177.53
-182.3
143.55
250.38
-9.95
-9.13
81.45
244.52
330.34
131.84
-24.23
41.39
162.77
169.23
70.23
-8.45
41.61
147.44
178.69
209.48
238.81
209.2
201.75
216.58
212.72
184.31
137.33
109.64
36.92
25.03
292.11
370.72
12.84
-91.27
70.14
72.95
117.17
216.73
248.77
298.55
333.7
311.73
221.23
120.55
110.44
117.7
77.26
20.28
-50.39
-113.44
-154.48
-195.39
-216.66
-216.15
-202.75
-148.23
-85.65
-45.2
-1.48
19.16
7.4
-3.39
-16.73
-86.05
-42.52
204.48
31.93
-432.38
-396.9
-319.09
-437.8
-360.49
-315.42
-318.75
-210.32
-120.8
-99.65
-125.33
-128.21
-79.94
-47.54
-34.72
-17.12
14.16
47.59
44.36
25.41
11.8
-26.31
-64.68
-66.54
-58.31
-46.46
-25.05
-13.54
4.77
35.73
22.34
22.18
252.76
449.58
162.65
-92.71
20.3
-4.08
-93
-34.93
-8.43
43.32
121.57
116.76
86.22
89.7
131.31
189.55
248.07
289.58
286.13
258.56
228.1
193.32
155.08
93.21
19.45
-38.17
-62.44
-38.96