176.31
156.98
98.34
85.99
93.76
38.49
27.3
12.48
-1.11
5.84
-66.4
-22.34
-18.88
-44.97
-36.4
-88.18
-131.5
-176.3
-186.05
-177.71
-195.79
-141.48
-160
-247.68
-220.47
-272.13
-226.1
-289.16
-229.67
-319.16
-279.66
-343.72
-319.53
-336.79
-337.76
-386.3
-340.29
-410.58
-424.45
-417.43
-429.94
-366.68
-457.19
-394.15
-414.26
-440.21
-478.51
-508.59
-443.63
-452.63
-519.76
-519.77
-476.19
-458.09
-520.6
-485.52
-523
-493.11
-547.39
-499.04
-489.29
-510.21
-516.63
-480.64
-457.59
-541.63
-501.69
-490.99
-528.77
-479.68
-528.41
1018.02
-421.08
-466.2
-431.62
-449.98
-401.87
-486.55
-473.99
-466.45
-371.04
-454.81
-405.49
-410.7
-364.18
-382.84
-408.39
-343.19
-353.09
-330.26
-303.62
-323.22
-279.46
-302.34
-280.19
-277.27
-235.38
-253
-200.44
-213.96
-169.22
-176.4
-124.65
-139.57
-101.94
-136.53
-55.1
-134.6
-95.92
-89.48
-55.55
-60.25
22.21
-9.44
22.64
65.94
68
27.25
69.78
72.81
134.4
137.6
100.75
142.06
203.2
224.15
146.67
187.09
187.25
232.5
212.92
305.71
269.5
309.85
333
328.37
292.08
344.41
307.49
312.05
377.14
351.03
393.26
348.33
367.78
450.57
389.28
398.06
414.12
431.1
487.84
456.6
447.67
452.84
501.4
488.73
523.34
500.48
528.57
521.67
497.42
544.4
461.13
536.22
453.77
491.4
541.15
535.5
468.74
481.46
511.33
537.09
454.07
456.12
512.78
463.95
421.7
441.94
437.02
462.72
489.7
489.73
447.19
471.78
373.26
367.64
431.02
360.12
338.31
408.83
354.04
336.55
387.45
311.57
297.48
351.73
276.6
288.48
235.93
217.98
213.99
262.88
180.07
210.15
149.56
144.28
154.42
153.06
87.74
97.68
59.13
41.45
76.97
71.07
82.81
68.95
-3.66
34.67
-3.53
-80.94
-26.45
-110.22
-53.93
-129.34
-138.97
-107.47
-131.43
-161.69
-153.95
-218.86
-151.07
-205.58
-223.63
-259.4
-227.95
-290.53
-321.97
-316.89
1162.88
-330.35
-335.73
-324.3
-360.9
-344.21
-340.98
-422.57
-369.57
-378.42
-451.98
-375.13
-421.1
-461.78
-410.11
-395.92
-451.56
-421.54
-467.22
-472.92
-447.21
-507.58
-508.66
-457.31
-493.35
-541.84
-544.48
-489.55
-497.87
-506.19
-522.95
-476.17
-541.34
-540.75
-529.77
-530.94
-471.51
-498.08
-488.54
-511.56
-440.86
-454.77
-515.77
-502.48
-412.2
-457.89
-479.78
-422.84
-454.45
-436.39
-416.71
-405.76
-444.3
-398.9
-358.38
-418.57
-331.7
-397.31
-310
-308.13
-369.19
-311.54
-323.88
-258.81
-305.53
-229.5
-272.91
-270.01
-177.45
-220.36
-194.58
-202.86
-130.96
-148.82
-175.57
-135.33
-102.42
-117.2
-28.62
-10.94
-60.43
-77.75
-19.4
-41.9
46.21
-16.38
53.97
13.58
47.25
101.02
65.25
69.75
174.99
162.42
114.07
139.04
196.92
214.19
254.55
255.78
220.8
296.94
319.37
281.44
345.53
325.57
332.18
312.83
327.53
338.03
405.61
331.39
396.09
408.73
411.96
399.26
379.44
403.24
403.29
412.92
497.64
421.72
510.66
499.11
521.53
456.4
462.52
485.91
449.06
484.97
452.15
455.83
480.37
458.69
532.86
534.57
476.95
454.55
511.12
498.13
524.48
507.59
524.84
515.2
476.75
517.28
465.63
461.87
484.29
472.93
416.91
475.72
389.2
413.78
395.49
419.39
448.06
393.98
399.03
393.5
353.47
358.47
308
292.62
277.61
353.01
249.52
1780.69
284.18
242.6
285.05
203.52
210.3
254.44
202.15
202.58
198.82
125.82
170.71
90.54
81.23
47.41
97.35
18.45
34
10
2.52
-31.1
7.18
13.48
-82.67
-13.96
-110.53
-109.13
-106.78
-125.25
-143.4
-135.39
-165.72
-162.46
-179.93
-223.71
-213.53
-257.72
-270.11
-295.69
-279.78
-239.14
-303.16
-279.31
-278.61
-316.56
-355.66
-386.46
-381.99
-412.6
-354.31
-384.23
-407.33
-398.12
-381.05
-424.67
-404.83
-400.88
-453.83
-453.44
-417.41
-485.88
-440.52
-473.95
-506.4
-449.31
-452.87
-495.43
-513.75
-456.39
-448.04
-531.97
-454.29
-544.12
-539.07
-510.85
-494.91
-480.94
-510.12
-469.78
-482.74
-503.74
-466.21
-445.44
-456.96
-480.54
-448.24
-505.12
-414.82
-427.25
-407.91
-442.94
-455.75
-459.28
-395.21
-430.55
-402.5
-414.64
-407.02
-400.39
-296.69
-352.53
-361.77
-272.91
-275.5
-265.26
-279.33
-290.59
-283.34
-204.23
-204.46
-181.19
-149.23
-182.6
-189.33
-169.25
-123.07
-122.54
-128.93
-127.93
-54.85
-40.67
-40.59
-22.62
-4.36
32.7
-23.97
53.41
13.92
14.84
38.7
94.13
56.87
147.87
99.9
138.05
133.12
195.25
220.25
165.31
249.57
216.64
285.61
284.36
262.21
302.99
335.1
259.49
347.55
331.5
335.06
372.86
314.55
321.67
422.7
391.56
381.2
371.23
368.11
448.61
420.42
455.32
465.65
472.83
427.71
447.28
452.64
425.94
494.57
515.8
490.79
492.69
484.04
505.06
469.04
451.87
493.71
525.54
458.57
450.65
532.92
456.96
493.68
457.81
489.07
443.99
467.46
486.93
491.56
437.25
497.96
485.86
451.54
413.43
487.63
413.96
427.91
444.08
439.48
411.5
373.73
341.83
395.74
354.55
345.32
358.52
276.49
312.26
317.41
303.17
276.09
272.62
249.15
216.53
235.07
169.67
181.33
167.47
131.4
145.23
190.27
96.09
90.28
110.8
97.37
51.39
50.69
63.73
9.43
46.58
-44.93
7.48
-30.96
-28.71
-113.61
-78.26
-136.98
-119.31
-92.95
-99.88
-139.48
-133.57
-157.6
-200.81
-168.3
-186.08
-253.72
-273.22
-276.51
-256.4
-303.65
-302.13
-276.89
-279.63
-358.74
-360.09
-395.87
-324.64
-347.5
-425.92
-427.44
-381.79
-425.31
-382.45
-401.31
-439.9
-421.41
-452.72
-441.33
-487.57
-451.33
-433.03
-483.52
-524.72
-456.97
-489.93
-489.07
-481.96
-460.84
-540.66
-530.07
-484.8
-459.74
-501.62
-466.5
-538.95
-446.18
-451.6
-523.7
-525.27
-438.58
-498.32
-501.5
-469.25
-430.01
-429.2
-456.03
-407.8
-438.38
-432.49
-416.26
-448.79
-453.87
-408.01
-396.2
-349.37
-355.61
-410.14
-381.31
-309.02
-325.95
-354.92
-292.55
-264.6
-297.38
-247.15
-208.74
-232.87
-199.02
-207.7
-243.56
-217.79
-130.17
-191.47
-142.48
-80.57
-142.75
-104.49
-65.37
-45.26
-75.48
-12.93
-53.54
-48.42
1500.69
-5.13
76.12
89.64
48.16
55.51
100.71
131.34
172.92
89.66
184.22
123
194.94
205.69
206.09
222.81
208.75
228.45
257.07
266.27
315.5
324.27
277.69
311.21
378.93
380.18
357.6
321.61
356.24
433.85
371.97
443.42
430.89
435.51
477.94
458.8
448
470.01
463.63
480.46
419.36
523.41
454.13
441.73
521.3
447.8
494.29
493.93
500.91
522.6
530.46
456.79
541.15
456.44
502.83
506.03
484.85
514.55
473.08
486.96
436.83
452.09
503.28
477.77
449.07
465.55
470.98
454.96
469.81
440.01
415.8
465.76
441.02
422.86
438
339.37
344.27
387.84
348.1
384
296.57
279.66
256.69
294.14
290.57
277.24
272.06
251.27
238.2
169.54
173.36
200.46
143.82
119.66
167.72
119.76
135.11
64.11
93
70.68
59.12
-5.47
49.82
37.3
27.49
-49.89
-50.44
-65.8
-17.7
-96.56
-141.04
-77.14
-119.95
-95.14
-189.19
-177.22
-152.48
-242.36
-225.35
-232.38
-233.89
-291.34
-268.74
-242.54
-265.93
-320.43
-305.83
-347.73
-357
-382.11
-388.8
-372.67
-381.18
-429.98
-419.78
-377.94
-369.33
-423.12
-452.06
-418.79
-436.84
-490.61
-495.53
-439.2
-437.23
-514.07
-511.21
-528.51
-494.41
-470.74
-501.03
-453.46
-516.61
-505.32
-480.54
-474.26
-509.46
-453.25
-503.32
-459.17
-495.05
-505.61
-528.76
-535.64
-461.88
-510.56
-451.69
987.85
-444.94
-475.22
-427.68
-459.9
-483.5
-426.29
-391.27
-409.1
-373.22
-433.82
-351.05
-343.37
-416.67
-327.09
-307.15
-304.53
-322.79
-318.1
-267.75
-320.41
-266.21
-266
-263.27
-291.05
-240.1
-193.01
-194.19
-163.83
-159.16
-177.56
-152.76
-104.65
-127.22
-143.81
-102.57
-107.28
-106.18
-45.95
0.95
-19.94
9.8
52.08
31.7
9.24
94.13
68.59
77.76
96.62
143.93
94.63
115.14
165.68
175.03
191.68
212.66
233.15
237.42
221.68
268.19
234.45
249.23
334.5
258.49
351.79
349.15
385.84
314.53
348.92
351.3
419.9
387.09
397.64
421.73
443.33
459.42
400.56
443.49
419.11
489.85
422.53
481.19
445.37
466.26
445.34
439.83
522.58
463.49
488.18
515.23
499.51
505.19
522.31
499.15
489.14
449.57
466.66
470.23
465.94
527.88
510.37
458.91
502.73
496.83
523.11
450.02
422.5
443.37
439.1
397.84
474.32
392.12
385.05
416.78
355.3
385.89
336.15
395.41
376.68
330.34
366.81
313.51
355.08
330.86
285.25
330.61
244.92
266.33
255.64
191.19
211.29
185.86
167.48
131.19
129.41
107.56
112.07
156.41
124.56
45.93
40.82
48.28
44.96
-13.23
-30.31
-43.46
-50.39
-8.57
-70.32
-26.57
-82.03
-104.88
-118.72
-135.61
-88.74
-170.11
-113.54
-131.62
-172.06
-209.84
-177.02
-231.71
-279.74
-232.65
-260.08
-281.41
-247.58
-348.08
-302.1
-378.08
-339.18
-379.25
-355.09
-332.82
-385.29
-410.59
-441.66
-433.06
-416.15
-425.13
-394.05
-432.09
-477.87
-451.92
-462.02
-493.72
-481.66
-458.74
-523.59
-452.04
-444.73
-514.75
-462.37
-488.57
-467.2
-466.45
-547.04
-541.85
-488.1
-487.36
-528.45
-473.55
-482.58
-538.35
-527.19
-465.07
-473.17
-522.63
-439.67
-433.04
-444.6
-464.79
-493.69
-403.09
-486.97
-464.81
-442.44
-448.07
-430.37
-392.28
-426.74
-334.98
-416.28
-380.48
-330.42
-332.95
-300.01
-270.68
-260.68
-263.23
-232.65
-245.24
-256.73
-266.43
-200.91
-224.27
-204.86
-142.92
-176.6
-105.83
-127.82
-141.91
-90.95
-58.77
-107.9
-47.42
-96.2
-50.88
-11.12
43.03
2.16
-7.82
59.6
13.64
109.58
125.96
149.29
72.29
97.69
158.23
164.61
216.4
141.68
233.46
214.55
263.45
192.62
266.52
257.88
287.35
282.83
257.96
269.28
308.09
297.17
397.56
311.21
413.12
380.98
396.66
359.23
398.71
410.19
383.58
411.36
395.11
447.74
435.54
492.63
469.58
512.36
459.17
450.96
518.91
458.96
535.16
451.82
471.15
545.76
525.96
466.23
524.2
504.77
460.27
480.53
524.24
544.59
497.23
521.08
446.59
492.33
503.1
474.58
486.01
436.06
426.58
456.58
413.31
450.1
381.96
459.53
451.28
370.36
432.34
364.78
421.2
407.13
352.29
355.61
329.45
309.25
277.91
324.31
1801.62
284.6
272.82
301.43
250.83
175.69
224.33
202.01
201.51
139.34
125.22
155.98
163.62
147.6
69.86
49.66
18.33
47.94
20.78
31.94
-10.49
19.73
20.05
-37.35
-55.69
-53.71
-105.68
-116.21
-149.58
-130.24
-103.91
-165.64
-169.47
-180.22
-209.22
-245.35
-205.99
-245.52
-282.98
-297.23
-282.64
-331.56
-260.85
-335.84
-331.81
-311.71
-381.75
-406.99
-337.3
-379.9
-349.76
-406.92
-368.36
-413.82
-404.19
-449.64
-421.84
-422.8
-489.74
-507.18
-498.05
-440.01
-457.22
-509.99
-470.65
-493.47
-446.75
-514.32
-540.79
-496.03
-525.54
-486.92
-523.22
-499.39
-471.82
-543.95
-460.81
-545.39
-512.57
-441.48
-526.34
-472.39
-513.98
-445.4
-454.62
-515.18
-489.34
-447.06
-414.1
-409.37
-452.59
-422.71
-433.96
-450.82
-398.09
-393.38
-373.67
-397.1
-350.59
-348.23
-383.2
-295.15
-316.3
-317.24
-272.65
-323.64
-221.84
-250.39
-277.26
-231.26
-196.67
-247.82
-209.47
-213.76
-161.4
-185.16
-89.64
-93.9
-147.33
-89.61
-38
-87
-14.52
-43.22
-55.62
-23.71
43.65
32.16
99.09
98.37
82.24
127.45
86.15
155.93
170.75
195.57
134.28
152.08
213.64
233.96
224.82
252.92
292.7
278.56
256.75
316.11
261.18
270.36
339.47
381.95
387.96
365.23
411.32
364.02
342.4
421.24
397.22
445.38
465.02
406.12
452.44
394.67
424.97
460.89
501.82
513.48
505.72
1935.05
445.82
504.17
482.49
532.01
447.67
484.82
449.18
499.77
501.99
502.06
518.01
464.03
521.08
536.11
488.7
496.5
445.47
443.43
462.65
439.27
471.68
510.59
494.71
431.27
465.94
405.52
441.35
451.37
423.14
433.1
428.82
384.08
385.45
406.43
342.34
330.64
307.55
376.43
326.97
324.25
295.62
264.55
247.31
247.68
197
273.38
260.94
157.29
165.3
174.9
115.56
194.8
170.79
115.72
102.19
91.12
87.29
33.26
91.87
16.26
-35.95
-27.18
-24.62
-64.22
-69
-26.88
-68.38
-76.42
-111.18
-75.93
-119.12
-129.29
-210.08
-181.62
-154.26
-246.54
-222.7
-205.18
-217.74
-302.18
-282.09
-311.64
-315.67
-291.3
-343.07
-376.95
-390.96
-315.59
-390.28
-411.87
-375.46
-369.59
-390.55
-436.83
-420.07
-419.45
-412.56
-413.39
-446.26
-464.34
-485.34
-458.71
-496.01
-444.21
-475.08
-523.66
-477.34
-463.56
-444.98
-531.21
-470.99
-504.21
-510.28
-527.16
-462.54
-463.56
-529.41
-477.66
-491.41
-447.64
-457.48
-474.12
-469.1
-457.51
-434.3
-484.96
-466.71
-491.51
-474.02
-453.2
-414
-434.35
-449.06
-438.51
-356.83
-429.25
-426.58
-327.21
-376.01
-386.35
-348.44
-286.44
-316.81
-340.32
-311.03
-273.62
-235.07
-286.01
-278.6
-267.58
-193.28
-196.55
-230.83
-216.85
-124.42
-128.65
-184.03
-108.39
-147.68
-47.24
-98.17
-11.75
-52.8
-8.19
-1.24
47.52
-8.27
-5.18
67.75
65.05
120.44
85.23
149.99
164.04
141.35
110.07
152.98
191.76
177.3
223.85
206.58
229.62
225.57
233.38
233.69
263.34
343.56
320.57
341.66
367.15
309.3
320.04
342.1
331.64
417.46
397.34
352.64
365.58
445.52
386.95
468.98
425.79
494.99
448.7
466.63
487.46
512.19
506.18
481.49
526.46
503.84
458.54
527.06
537.17
524.54
453.41
521.09
498.43
461.22
541.37
461.55
500.11
483.95
468.08
538.98
462.24
522.21
442.11
437.03
471.46
489.48
421.07
432.82
458.41
479.77
415.57
396.55
420.1
374.71
434.47
376.63
355.89
411.04
342.18
382.16
330.22
363.38
348.65
282.03
241.24
252.36
304
254.54
205.71
180.9
228.3
157.91
190.59
117.11
198.71
98.45
97.24
106.24
76.39
66.29
29.12
31.71
-4.44
58.53
-23.44
-27.11
-8.21
-31.43
-57.73
-67.74
-133.47
-58.74
-86.95
-99.83
-116.2
-201.29
-203.53
-196.23
-168.53
-240.35
-268.48
-291.1
-210.37
-288.22
-322.63
-255.12
-298.02
-307.68
-307.6
-326.08
-366.97
-368.21
-329.54
-385.12
-423.21
-356.41
-382.9
-369.84
-431.77
-474.24
-413.49
-415.38
-429.01
-428.68
-431.12
-478.31
-477.52
-520.94
-482.72
-485.13
-458.41
-521.22
-471.36
-518.46
-507.53
-489.49
-545.42
-513.84
-450.42
-483.31
-470.12
-461.7
-522.2
-502.59
-450.83
-451.91
-450.22
1066.73
-444.64
-495.15
-427.5
-499.87
-477.58
-457.26
-473
-432.24
-450.79
-357.92
-360.95
-362.71
-413.85
-354.68
-342.23
-309.61
-344.92
-348.24
-315.87
-273.82
-309.54
-229.8
-214.95
-237.47
-267.92
-173.88
-178.36
-234.94
-155.79
-194.09
-159.13
-164.32
-97.53
-124.54
-104.12
-116.4
-78.88
-11.83
-40.84
-7.48
-30.73
19.1
22.2
22.95
35.15
81.57
56.93
139.96
81.29
110.02
148.53
130.55
128.42
185.34
176.27
185.03
215.54
215.83
237.94
255.64
287.53
311.82
311.14
278.64
331.89
291.08
315.65
381.19
368.58
354.93
396.11
422.75
447.41
415.32
416.84
461.04
443.92
493.49
474.23
415.62
477.95
476.11
489.18
470.48
532.57
530.16
527.65
482.08
511.24
455.16
522.56
468.95
496.84
532.86
490.43
454.11
523.48
517.75
455.33
464.16
535.1
462.15
488.06
505.37
470.86
426.94
445.26
493.91
396.76
480.77
474
375.11
419.87
410.48
389.43
374.92
346.19
349.05
402.81
353.82
353.43
323.67
267.45
337.4
284.68
240.02
254.48
240.46
277.73
271.42
181.85
177.74
220.81
197.91
163.95
161.45
133.05
75.85
51.6
106.01
55.07
40.2
77.24
43.4
-2.26
-45.19
-7.37
-60.93
-101.87
-28.28
-107.36
-99.14
-78.9
-106.66
-151.96
-133.62
-161.73
-174.09
-211.32
-213.11
-188.4
-203.16
-266.53
-219.6
-286.95
-294.66
1153.83
-316.83
-328.59
-310.94
-322.92
-369.95
-401.94
-375.33
-394.56
-435.91
-391.71
-421.94
-426.63
-449.89
-389.09
-403.71
-438.02
-488.86
-495.9
-426.12
-438.58
-498.64
-525.32
-498.71
-468.79
-488.63
-520.65
-450.12
-452.79
-520
-461.52
-501.91
-471.86
-490.11
-515.23
-447.96
-540.91
-503.82
-456.13
-447.99
-503.16
-524.37
-475.85
-447.19
-426.34
-412.71
-467
-391.7
-417.24
-404.41
-378.39
-363.62
-442.1
-415.85
-400.55
-332.38
-352.42
-345.21
-344.68
-299.64
-285.2
-352.53
-331.82
-302.13
-249.23
-206.71
-246.78
-195.41
-184.17
-192.77
-140.2
-176.21
-175.84
-93.92
-110.13
-120.91
-68.72
-66.48
-21.15
-33.88
-84.67
11.18
-42.44
5.17
47.85
-7.74
69.07
73.44
107.5
129.39
150.2
151.65
166.06
164.7
187.3
171.06
210.36
256.87
272.25
227.65
236.43
243.97
294.99
239.07
274.54
356.6
349.15
294.25
375.85
328.78
345.25
335.15
395.62
392.93
396.69
437.78
408.02
462.51
480.56
398.38
446.16
425.05
459.23
437.56
510.29
496.89
464.63
450
464.11
502.04
449.63
472.37
497.93
525.08
477.73
478.73
463.02
482.46
508.28
479.59
476.67
509.88
457.2
512.49
509.54
460.45
429.11
504.91
488.08
493.49
471.92
461.98
443.61
397.5
369.24
381.99
441.52
391.87
429.95
337.81
373.11
336.56
369.96
333.75
340.07
343.84
284.18
311.28
304.6
237.38
242.38
226.38
254.87
224.52
195.12
178.62
173.97
150.91
130.15
167.03
87.14
133.28
44.67
50.89
-6.78
-2.94
-7.18
42.11
16.8
16.19
-19.79
-54.21
-28.74
-95.69
-151.41
-139.72
-137.74
-166.52
-136.37
-215.28
-193.58
-169.6
-216.67
-227.15
-252.09
-260.92
-299.88
-275.93
-315.08
-344.03
-289.41
-303.89
-311.98
-384.37
-321.12
-335.53
-401.26
-412.44
-367.76
-427.45
-407.36
-406.91
-435.02
-471.44
-422.7
-429.87
-469.27
-419.58
-448.63
-514.56
-508.01
-499.19
-498.79
-448.77
-480.86
-513.73
-485.64
-534.1
-511.98
-504.84
-519.19
-533.24
-464.83
-446.66
-533.32
-481.01
-526.35
-501.34
-509.35
-437.89
-508.5
-504.95
-420.11
-476.14
-487.77
-392.98
-468.34
-382.66
-388.8
-399.37
-431.9
-426.47
-398.77
-412
-326.09
-338.28
-382.88
-344.29
-280.64
-333.48
-256.84
-260.7
-305.71
-287.07
-258.83
-265.33
-189.63
-186.61
-238.96
-130.55
-129.07
-193.61
-161.2
-155.95
-102.49
-85.27
-83.85
-61.13
-22.45
-28.18
16.87
0.72
-27.83
32.88
9.04
26.43
43.54
138.4
82.87
146.88
87.11
154.18
159.08
222.58
213.94
197.02
176.72
217.94
261.19
290.82
269.62
251.66
263.13
354.16
270.85
369.62
388.08
312.64
345.14
382.17
348.64
353.55
421.89
407.97
442.4
400.42
387.04
459.13
408.89
466.56
498.62
467.36
444.55
2011.34
479.52
448.76
462.43
459.18
495.81
457.2
540.72
470.88
528.46
454.92
459.67
546.18
509.75
540.83
472.14
539.96
490.05
505.46
432.26
526.57
438.16
428.55
434.35
497.3
440.99
411.5
485.01
399.06
420.05
377.58
452.02
408.24
342.92
373.11
393.52
371.5
316.44
341.26
345.86
283.19
265.06
282.34
287.44
251.36
295.96
223.74
257.99
157.96
241.39
202.99
188.68
159.45
128.3
150.9
109.17
89.79
48.33
41.66
67.47
73.67
-24.15
12.84
-46.07
-73.76
-71.24
-82.86
-57.65
-92.16
-109.79
-79.84
-134.73
-141.04
-144.75
-157.09
-214.57
-174.08
-190.39
-232.41
-275.58
-262.18
-272.82
-268.74
-291.7
-271.73
-310.28
-316.53
-339.17
-381.55
-334.94
-384.53
-376.97
-352.91
-440.4
-401.02
-436.34
-376.36
-397.98
-444.65
-414.61
-430.86
-440.91
-451.72
-488.21
-508.68
-481.78
-444.68
-482.8
-506.96
-453.96
-467.83
-543.24
-497.02
-452.6
-509.81
-523.63
-453.38
-454.06
-530.49
-521.22
-464.68
-470.76
-531.92
-454.57
-483.97
-434.14
-497.74
-450.74
-496.55
-437.4
-472.47
-428.83
-451.15
-391.17
-385.33
-400.5
-437.55
-433.81
-352.38
-405.72
-395
-354.74
-291.21
-334.64
-330.7
-333.95
-318.7
-236.23
-276.17
-216.88
-240.08
-224.28
-259.27
-177.64
-165.99
-185.57
-185.42
-95.99
-94.67
-128.38
-50.71
-97.75
-109.26
-49.9
-38.07
11.54
-54.28
1496.4
14.67
82.2
69.12
88.31
127.12
138.34
91.32
115.16
98.57
191.4
219.26
195.53
151.54
222.39
206.57
198.86
296.25
289.36
311.57
261.57
348.28
285.14
281.29
329.98
357.32
323.81
333.63
366.39
418.72
437.03
401.64
388.54
390.56
446.05
433.19
462.93
421.6
488.05
433.4
467.11
454.73
484.34
508.08
526.13
518.95
527.25
503.14
469.55
468.95
452.48
522.13
480.45
498.9
479.53
493.95
456.88
529.27
509.07
472.05
447.26
464.45
492.05
421.35
457.46
469.91
442.85
411.88
480.56
430.67
388.32
420.06
390.56
352.48
406.42
336.69
324.78
386.75
316.16
380.26
364.77
296.41
256.56
310.86
317.08
216.19
298.75
191.7
266.68
185.93
229.84
227.63
174.82
152.61
189.01
159.63
102.99
127.14
97.5
33.28
95.41
32.06
48.56
-33.32
29.61
-43.73
-60.12
-58.25
-94.08
-98.73
-74.64
-112.48
-80.61
-98.79
-187.21
-168.47
-191.15
-240.74
-191.34
-175.57
-282.42
-290.46
-277.38
-303.87
-253.64
-267.05
-354.59
-332.1
-357.94
-378.86
-351.74
-415.82
-394.37
-424.76
-350.91
-358.15
-382.26
-446.87
-400.37
-425.56
-429.61
-428.14
-490.61
-464.18
-427.06
-480.02
-515.51
-491.29
-516.9
-457.89
-477.75
-520.6
-482.76
-508.26
-457
-520.52
-474.06
-456.97
-504.6
-513.68
-502.09
-503.1
-454.48
-529.95
-469.08
-433.85
-501.22
-497.16
-467.98
-449.02
-458.59
-436.83
-477.72
-411.14
-385.62
-393.36
-395.3
-392.55
-423.04
-365.56
-362.8
-328.33
-374.27
-343.35
-351.33
-314.95
-280.81
-319.33
-248.31
-257.92
-210.41
-212.72
-215.8
-216.25
-219.27
-149.04
-171.62
-114.37
-111.64
-138.36
-96.38
-53.8
-114.09
-64.48
-6.21
-87.55
-74.14
-25
-20.9
47.71
-12.17
6.61
63.49
128.04
141.74
101.84
112.37
182.18
195.91
205.66
206.07
199.86
245.14
261.24
246.81
231.37
295.17
306.81
324.56
290.26
307.15
353.61
293.66
320.14
328.31
333.48
364.08
396.16
431.91
365.4
416.01
381.56
459.55
407.43
486.46
405.25
473.08
468.97
453.44
506.01
480.52
439.8
501.57
494.08
505.18
462.59
466.55
461.81
471.82
484.45
530.41
549.52
495.88
535.83
464.24
531.18
539.04
447.33
454.61
523.26
479.43
448.6
512.02
433.03
471.63
459.8
463.37
394.2
395.89
397.75
436.74
351.79
392.82
359.09
397.27
342.46
375.99
336.72
359.78
305.4
269.87
293.41
290.89
231.9
209.42
244.84
222.69
259.94
184.13
195.4
180.61
120.08
194.52
105.08
107.7
98.17
106.01
55.3
23.16
3.87
16.97
8.94
-44.28
-6.2
-38.61
-35.18
-88.41
-83.85
-138.11
-103.86
-80.32
-106.67
-179.46
-196.89
-200.23
-232.38
-247.98
-238.53
-229.97
-265.68
-255.67
-245.3
-292.41
1244.18
-276.69
-307.78
-369.95
-366.69
-397.87
-406.29
-345.85
-365.17
-372.72
-430.21
-419.92
-398.07
-471.64
-463.88
-419.34
-426.5
-445.6
-471.46
-493.32
-462.11
-434.79
-455.96
-471.69
-479.53
-500.61
-511.26
-524.43
-454.41
-488.94
-479.22
-515.21
-450.27
-540.23
-495.31
-526.25
-510.87
-461.56
-505.08
-533.64
-475.12
-475.99
-472.08
-458.27
-437.39
-472.66
-451.29
-492.18
-397.89
-476.8
-391.67
-443.99
-416.33
-398.24
-369.45
-412.46
-327.54
-392.84
-361.64
-352.69
-277.58
-300.16
-301.71
-263.01
-279.21
-265.84
-197.33
-271.69
-241.39
-241.83
-192.97
-194.33
-124.24
-167.6
-100.38
-91.54
-118.72
-121.99
-27.65
-44.82
-32.9
-55.87
-25.6
44.56
-15.38
51.36
18.15
99.74
63.82
106.56
64.61
162.46
160.14
154.21
149.05
196.02
160.75
180.7
249.39
257.26
228.52
228.64
239.87
330.11
278.52
330.4
358.19
309.95
378.28
379.77
352.07
403.07
397.59
426.56
444.47
389.41
435.13
430.56
439.88
448.6
457.76
480.68
431.83
488.67
483.15
518.45
488.75
500.95
456.41
526.78
516.85
500.02
459.7
527.57
514.68
499.21
489.95
518
521.04
490.51
460.83
451.9
491.52
502.05
492.66
511.83
503.07
468.55
414.6
504.85
420.15
482.39
409.37
461.43
417.85
403.43
400.76
411.55
415.18
330.22
394.07
356.46
327.23
332.89
276.76
267.76
342.12
1817.21
291.21
211.02
246.68
253.05
191.41
222.03
205.89
221.82
122.24
148.18
106.15
158.97
148.33
128.1
86.34
96.24
49.13
40.9
-20.52
3.34
-51.24
-15.61
-11.66
-69.61
-54.08
-94.29
-103.77
-76.77
-84.08
-143.04
-127.92
-215.63
-163.78
-218.28
-168.74
-203.81
-193.83
-285.33
-309.86
-253.6
-336.07
-267.88
-278.62
-353.96
-329.93
-364.64
-383.18
-368.98
-333.57
-395.56
-431.78
-391.6
-421.21
-384.84
-433.28
-479.25
-497.42
-488.89
-497.71
-459.19
-512.25
-466.52
-436.46
-454.28
-460.97
-501.48
-471.53
-469.82
-492.97
-494.91
-455.63
-533.9
-451.02
-506.13
-467.83
-538.56
-497.52
-532.86
-480.01
-443.92
-499.1
-526.77
-513.59
-447.11
-491.86
-424.31
-461.55
-452.06
-435.28
-450.2
-417.28
-424.63
-439.17
-414.92
-375.37
-361.47
-353.42
-308.85
-337.06
-361.7
-371.71
-279.36
-347.29
-322.15
-291.35
-310.12
-201.14
-249.57
-176.01
-213.61
-234.68
-209.57
-174.29
-174.36
-151.97
-78.67
-132.99
-65.33
-99.39
-86.94
-17.99
-5.37
-43.24
-50.48
7.54
-14.22
6.22
43.36
29.04
48.38
99.82
152.7
101.1
155.9
112.49
214.27
150.56
152.72
203.64
181.34
287.88
225.56
314.01
264.7
328.41
328.35
281.37
299.91
303
304.71
364.99
419.21
398.24
391.94
366.15
364.65
413.55
451.46
418.91
479.86
405.41
483.06
494.82
450.51
446.4
516.96
511.96
457.28
481.33
523.14
459.64
477.83
494.69
472.68
535.13
504.73
506.58
473.53
499.05
540.39
455.7
444.57
451.71
536.49
477.81
500.08
522.01
471.83
478.59
504.99
453.27
462.01
453
438.82
445.34
421.83
452.77
383.81
349.09
398.43
403.25
377.93
389.8
343.34
284.07
335.7
347.9
285.87
279.95
225.87
272.72
198.25
220.75
238.22
170.49
192.66
208.94
122.89
176.65
175.47
141.14
107.17
59.31
28.9
5.3
74.73
5.14
14.08
41.58
8.42
-67.07
-79
-115.87
-86.96
-144.12
-100.63
-168.39
-190.33
-190.33
-178.47
-232.29
-187.4
-170.71
-185.57
-285.38
-265.58
-216.07
-288.57
-291.46
-336.97
-284.01
-308.62
-337.11
-332.09
-356.83
-365.14
-414.97
-414.54
-373.07
-383.13
-369.07
-420.29
-385.24
-424.67
-490.01
-456.23
-442.77
-418.68
-444.73
-507.66
-477.64
-434.21
-444.23
-454.33
-485.43
-494.26
-476.17
-513.14
-513.61
-461.54
-500.65
-497.12
-486.4
-536.85
-481.14
-517.64
-537.97
-467.09
-522.41
-484.38
-428.05
-426.21
-452.76
-418.38
-484.18
-431.95
-443.89
-402.41
-382.13
-419.29
-403.45
-373.16
-362.55
-364.4
-353.63
-366.73
-328.21
-304.07
-329.58
-303.5
-333.08
-254.82
-305.01
-251.34
-297.76
-210.26
-191.51
-200.81
-248.63
-220.48
-160.82
-200.89
-101.38
-125.96
-126.53
-54.45
-76.59
-107.7
-80.73
-57.18
-56.82
9.24
1458.81
24.12
-11.77
75.81
78.13
39.79
127.78
93.33
137.65
98.39
114.27
138.03
181.59
151.28
235.07
250.82
265.9
249.85
223.1
305.15
282.01
274.26
331.9
319.03
308.67
312.42
309.61
374.12
375.01
412.28
350.73
365.15
443.82
402.89
440.42
392.72
427.75
494.4
439.53
451.98
455.31
425.31
470.53
447.44
464.91
530.82
446.56
515.16
503.74
475.78
459.22
497.81
494.94
505.71
505.27
540.73
521.92
466.11
451.24
486.45
508.08
528.91
522.3
434.54
506.04
469.69
456.4
445.2
410.42
434.34
462.12
408.42
388.03
419.96
403.28
414.94
387.62
346.56
339.42
352.29
360.35
288.72
331.43
254.41
284.73
278.5
269.33
292.72
183.93
192.13
198.74
183.66
177.83
159.8
96.32
169.52
125.15
116.74
45.89
109.16
77.28
10.54
62.19
-0.39
21.84
-26.54
-38.68
-41.51
-87.82
-36.46
-60.28
-121.21
-73.55
-108.71
-116.55
-120.89
-133.3
-199.54
-163.52
-198.15
-206.56
-255.05
-238.31
-307.44
-325.89
-251.41
-344.61
-280.94
-382.09
-364.13
-369.88
-401.46
-384.99
-372.86
-401.65
-397.37
-407.77
-418.5
-431.41
-440.77
-436.88
-480.02
-437.24
-468.75
-448.24
-472.04
-453.61
-468.52
-471.89
-462.68
-485.36
-500.3
-459.48
-492.15
-514.27
-498.57
-463.68
-517.61
-519.53
-545.91
-449.99
-446.53
-463.03
-449.8
-492.34
-455.72
-504.29
1060.47
-512.13
-426.96
-457.41
-470.85
-454.23
-402.07
-418.35
-415.66
-429.6
-354.29
-442.25
-365.43
-329.8
-357.38
-355.04
-336.36
-313.58
-365.98
-344.29
-324.12
-317.8
-239.31
-218.55
-226.79
-195.74
-233.54
-250.46
-177.99
-130.3
-190.07
-133.66
-168.33
-146.35
-90.7
-123.6
-115.69
-105.52
-70.93
-22.03
-5.66
16.58
37.91
43.48
92.43
79.61
60.41
92.5
98.64
151.84
182.95
177.07
205.39
146.36
144.06
176.34
212.61
218.49
253.11
211.77
255.34
303.23
253.99
318.88
318.81
355.18
383.96
385.52
411.48
397.78
407.55
418.42
406.46
447.08
428.4
465.31
468.25
393.95
486.05
464.7
422.61
417.5
471.56
445.66
492.42
507.52
461.08
447.52
461.55
539.1
513.32
454.54
471.92
521.06
527.37
489.15
456.84
521.51
524.51
538.79
473.04
529.65
507.77
432.77
428.25
467.39
485.83
437.36
415.31
427.79
403.5
463.83
381.05
421.68
372.38
412.87
372.24
358.4
320.46
357.43
376.34
364.15
313.81
317.93
318.32
325.7
264.18
218.05
294.05
278.12
261.69
253.42
208.78
145.14
180.83
167.79
99.02
123.78
67.87
96.59
79.48
44.2
70.88
53.35
-1.36
25.13
-50.16
-4.09
-27.66
-104.85
-52.99
-130.69
-54.61
-143.29
-162.14
-155.42
-160.15
-160.25
-168.12
-213.56
-238.88
-240.89
-254.64
-254.13
-283.87
-291.98
-299.04
-326.84
-341.46
-308.77
-304.24
-324.06
-395.16
-340.78
-345.71
-365.89
-403.44
-457.8
-442.61
-423.97
-483.32
-411.44
-496.04
-463.04
-435.49
-500.77
-485.98
-468.71
-470.88
-474.04
-498.8
-456.25
-481.36
-489.14
-483.86
-542.53
-532.07
-527.02
-521.51
-542.71
-532.73
-482.93
-471.47
-490.73
-458.52
-445.32
-454.38
-490.33
-521.95
-463.19
-432.77
-420.26
-471.81
-401.75
-454.37
-426.53
-433.8
-420.91
-388.11
-421.17
-424.16
-423.79
-329.38
-331.68
-392.3
-288.96
-345.89
-302.61
-312.73
-253.96
-235.4
-249.54
-284.61
-274.33
-183.08
-216.89
-219.66
-211.5
-129.36
-153.26
-157.44
-123.51
-92.33
-116.65
-56.91
-23.43
-68.65
-4.31
-34.52
-6.34
25.64
-16.02
71.35
68.19
64.46
37.06
113.15
68.06
162.97
101.92
116.34
129.61
213.15
198.32
172.88
194.99
235.99
281.1
299.87
259.32
313.98
322.08
326.94
297.66
328.37
315.7
358.37
391.47
363.89
372.23
392.48
426.99
379.98
448.72
431.16
478.03
457.67
441.39
481.73
429.99
436.17
459.47
513.6
446.69
494.7
521.55
520.91
493.39
474.19
480.61
533.16
529.67
459.78
532.08
478.01
531.74
508.48
468.98
470.78
511.82
454.14
482.66
486.82
484.74
491.18
473.51
440.27
418.64
415.67
440.41
387.46
365.81
395.77
434.77
388.5
427.39
382.93
371.44
347.11
357.1
302.58
290.51
265.24
1801.27
239.35
240.03
258.49
263.77
259.36
196.9
194.08
187.16
175.94
118.15
101.21
82.67
112.6
140.63
95.33
46.51
81.19
10.65
29
-33.09
-14.06
-12.68
-41.49
-41.57
-62.76
-56.17
-84.29
-69.17
-146.46
-119.01
-129.57
-171.59
-162.83
-212.62
-261.52
-229.23
-256.91
-237.17
-306.75
-312.27
-310.3
-283.87
-290.27
-326.75
-306.59
-313.94
-359.83
-324.64
-408.71
-438.04
-359
-382.21
-406.73
-465.55
-434.99
-470.62
-400.88
-415.93
-481.65
-465.37
-446.01
-477.88
-458.58
-470.23
-469.77
-482.24
-539.26
-470.16
-516.74
-502.1
-472.44
-512.8
-470.32
-451.5
-515.03
-482.88
-505.07
-497.27
-446.47
-510.15
-440.15
-480.22
-522.73
-467.75
-506.95
-494.78
-427.37
-489.19
-457.45
-479.4
-426.72
-420.53
-370.92
-431.91
-355.45
-422.28
-328.84
-349.99
-375.23
-309.79
-364.18
-325.77
-303.26
-299.73
-231.8
-296.42
-247.15
-264.47
-207.85
-229.12
-171.97
-177
-167.66
-188.05
-170.52
-135.24
-69.53
-91.65
-85.37
-99.55
-65
-88.29
6.62
1.85
24.04
15.21
24.61
35.01
35.66
71.36
121.96
131
121.41
161.51
107.03
151.99
219.61
241.04
207.9
210.89
253.38
252.14
217.65
249.49
278.37
261.63
289.42
319.72
301.82
335.29
386.48
372.27
407.25
418.43
379.11
384.61
457.32
378.71
390.67
423.87
419.35
408.3
424.67
443.37
457.91
495.1
1989.96
436.88
535.73
516.65
472.05
461.89
544.33
491.08
476.6
501.02
453.51
472.27
458.38
517
457.46
488.51
458.75
502.86
450.24
451.67
447.13
453.15
436.82
443.47
501.53
403.68
432.34
430.16
475.92
428.19
362.99
367.51
398.86
392.09
386.74
404.56
398.92
314.94
340.01
302.56
324.47
337.83
281.97
295.29
227.4
207.87
268.48
206.16
243.08
150.18
139.91
127.82
110.39
151.2
116.51
149.35
88.36
94.77
70.04
15.6
-19.99
1.96
32.45
-39.97
-50.58
-14.05
-112.07
-58.57
-45.38
-121.05
-81.82
-184.87
-170.34
-187.83
-221.49
-209.5
-230.49
-246.24
-264.22
-206.5
-267.85
-246.7
-278.52
-321.72
-279.02
-360.37
-376.97
-349.77
-396.28
-399.84
-395
-380.93
-374.9
-437.36
-455.51
-393.4
-471.56
-434.74
-472.67
-437.32
-447.13
-429.4
-470.88
-500.13
-515.89
-484.02
-460.5
-473.27
-504.94
-468.35
-501.34
-535.6
-472.73
-547.17
-485.78
-480.12
-504.66
-457.44
-491.33
-457.59
-464.82
-506.9
-522.7
-502.62
-494.07
-439.71
-488.15
-481.97
-464.09
-424.95
-462.92
-448.03
-409.04
-381.7
-459.21
-432.46
-441.5
-427.24
-385.48
-337.89
-395.22
-384.96
-345.22
-279.5
-340.36
-277.89
-272.75
-250.62
-252.46
-273.6
-204.29
-194.01
-183.62
-154.8
-173.22
-132.15
-195.04
-119.64
-74.39
-126.62
-109.28
-72.96
-59.83
-42.17
-63.87
-10.65
1534.69
-18.44
-8.65
35.75
72.67
74.36
120.49
132.07
89.55
159.79
155.29
202.4
137.57
181.64
245.54
240.45
241.16
272.28
300.01
320.53
241.69
292.85
259.12
272.42
284.14
348.99
356.18
376.6
344.94
351.58
395.91
362.02
390.19
383.48
424.05
391.34
437.65
407.99
464.35
422.6
443.51
479.99
427.79
495.94
480.33
475.66
490.6
519.7
542.92
519.47
455.33
475.21
541.57
472.81
503.03
504.38
487.22
518.93
488.81
519.82
440.2
477.49
477.47
453.35
468.74
500.77
505.16
409.85
462.58
470.13
471.47
429.42
446.72
361.53
381.74
387.33
356.54
401.99
304.99
393.26
333.22
289.75
330.66
311.14
323.04
227.95
229.09
202.46
203.01
255.42
164.09
223.2
158.35
141.21
162.14
154.03
133.62
123.53
138.95
100.02
72.37
19.48
3.66
32.64
9.45
-29.97
-17.68
-29.36
-37.61
-115.76
-101.11
-53.13
-86.96
-162.42
-139.27
-122.61
-223.14
-190.2
-236.99
-236.51
-278.03
-219.63
-225.35
-311.29
-300.87
-340.37
-256.65
-287.87
-345.02
-326.11
-346.78
-338.02
-411.76
-363.98
-343.97
-431.28
-420.27
-402.96
-377.57
-393.92
-474.72
-447.42
-481.29
-438.78
-497.15
-435.47
-480.03
-464.58
-458
-535.69
-496.15
-505.02
-488.46
-468.83
-482.01
-455.22
-513.13
-492.54
-488.93
-470.15
-522.39
-507.02
-538.26
-451.21
-438.48
-436.98
-462.75
990.5
-463.06
-464.69
-435.4
-464.82
-408.54
-427.87
-389.83
-459.47
-458.81
-401.62
-396.08
-374.76
-423.36
-382.67
-329.24
-327.92
-368.65
-359.57
-276.8
-273.58
-326.4
-301
-220.21
-263.22
-187.01
-232.88
-186.71
-213.11
-208.68
-187.84
-166.66
-110.93
-154.85
-65.34
-81.88
-85.61
-97.47
-2.07
-71.33
-47.77
-52.62
-38.04
-14.24
16.61
26.24
116.92
54.99
125.48
112.62
154.92
141.41
200.21
137.78
177.65
237.62
229.18
228.52
195.33
294.13
256.51
233.7
282.9
274.84
278.11
320.77
354.07
379.19
392.48
343.66
374.61
435.31
431.99
373.2
374.07
457.75
409.23
429.84
461.58
483.56
483.04
444.76
504.45
457.74
525.17
531.32
457.02
482.4
533.85
541.01
511.93
495.79
463.87
487.39
526.77
539.67
508.71
540.18
511.65
454.96
487.06
532.13
468.01
483.25
493.5
516.4
466.97
478.28
402.7
438.92
456
448.63
411.41
382.84
358.54
379.05
423.62
369.48
361.99
341.88
380.42
315.04
336.21
350.06
320.01
263.04
315.04
243.18
233.58
233.62
260.88
193.25
191.14
168.7
137.53
143.19
174.4
154.07
88.01
103.89
81.8
39.97
55.2
31.16
-2.01
45.81
-25.23
-33.65
-36.28
-34.48
-35.19
-76.75
-142.34
-160.99
-130.78
-149.1
-107.31
-206.42
-204.29
-176.55
-194.19
-189.68
-202.89
-234.7
-290.81
-320.24
-243.82
1173.92
-317.1
-352.56
-303.19
-393.8
-377.58
-322.75
-366.5
-408.69
-398.91
-437.81
-449.19
-466.98
-480.69
-443.51
-448.72
-439.99
-463.2
-444.65
-430.83
-425.47
-429.87
-463.16
-512.9
-528.22
-494.14
-491.47
-475.05
-539.17
-507.56
-540.37
-507.82
-484.53
-485.67
-478.33
-455.49
-524.79
-534.54
-527.9
-455.66
-507.44
-437.8
-508.18
-464.36
-496.77
-466.87
-441.74
-410.15
-478.7
-471.79
-439.6
-388.67
-445.25
-407.74
-375.24
-354.19
-336.61
-303.2
-346.64
-341.99
-284.89
-292.55
-257.25
-311.81
-274.88
-266.78
-193.85
-275.21
-250.18
-240.04
-155.09
-210.5
-144.86
-171.93
-99.8
-86.46
-107.27
-104.1
-92.77
-29.82
-27.16
-52.64
-38.78
38.9
43.29
77.65
75.88
50.42
119.86
94.62
104.76
85.36
175.03
175.2
119.48
187.94
186.13
249.91
258.73
250.06
205.78
216.81
318.93
336.97
295.36
283.32
343.09
323.15
335.01
354.5
375.3
351.34
359.4
363.99
369.47
425.13
463.96
436.14
418.61
423.22
471.66
507.45
474.79
444.47
443.12
463.88
521.89
448.03
511.62
480.5
447.84
451.87
472.03
535.75
524.25
486.93
493.97
472.8
546.84
476.01
497.86
538.41
490.82
460.6
452.49
458.47
485.56
516.17
446.84
489.42
419.4
401.74
466.39
415.34
403.46
411.04
355.48
399.23
346.6
351.32
370.75
390.82
328.36
321.21
327.7
338.15
1840.84
279.38
229.36
234.54
220.24
277.53
181.88
185.28
230.35
127.43
111.17
97.97
87.83
165.68
131.92
71.21
91.24
42.37
38.31
-10.33
55.6
-32.39
-35.07
-60.64
-4.59
-19.31
-120.06
-78.77
-93.07
-145.38
-155.36
-152.17
-180.15
-201.49
-157.33
-186.57
-239.96
-194.9
-222.43
-299.35
-248.49
-291.82
-270.39
-300.15
-308.17
-317.22
-299.85
-399.05
-393.04
-334.23
-362.77
-399.11
-380.49
-428.67
-385.82
-419.54
-388.89
-477.22
-410.54
-491.24
-462.34
-509.36
-436.02
-499.94
-453.37
-533.16
-463.11
-493.56
-490.49
-471.39
-461.8
-548.83
-476.51
-474.2
-466.83
-503.02
-495.19
-497.12
-524.35
-498.68
-521.83
-443.65
-472.65
-526.86
-479
-490.91
-507.98
-491.29
-448.87
-450.14
-479.15
-406.06
-466.9
-428.56
-436.14
-438.69
-383.22
-416.61
-318.76
-340.27
-324.21
-314.06
-362.74
-338.46
-257.55
-273.49
-223.95
-306.37
-271.84
-217.67
-195.66
-184.1
-238.22
-166.87
-134.61
-196.54
-151.12
-156.65
-92.95
-121.6
-66.97
-101.29
-32.74
-0.41
-64.12
-38.59
-31.45
-4.39
-3.83
92.62
84.79
101.52
77.35
126.3
122.97
157.11
190.95
186.87
224.82
236.33
236.67
214.57
234.28
295.56
262.63
267.47
316.71
264.94
332.56
318.6
313.7
374.92
388.1
369.9
383.23
396.62
374.53
365.74
377.82
436.98
429.83
491.73
466.16
438.05
429.73
460.28
510.46
1931.44
443.67
471.67
499.32
521.63
489.93
531.55
487.21
501.35
508.34
530.31
498
489.47
459.19
524.14
478.52
524.62
521.24
447.38
531.13
518.37
470.49
470.25
459.71
486.23
471.76
462.98
419.47
458.32
449.27
386.27
415.55
381.7
382.21
423.19
319.4
389.58
391.95
334.1
282.92
294.59
307.07
290.46
234.42
301.13
249.66
205.19
238.68
180.66
167.44
184.56
143.13
175.98
114.01
120.06
134.64
54.08
37.44
98.39
35.56
8.43
41.71
23.81
-44.67
-52.59
-92.37
-9.26
-28.74
-53.5
-99.84
-145.69
-129.37
-123.23
-114.04
-196.14
-168.46
-161.86
-195.55
-272.82
-210.84
-207.02
-300.78
-259.3
-291.15
-349.96
-292.34
-315.06
-377.41
-318.54
-400.74
-364.06
-343.11
-430.65
-407.75
-416.91
-425.09
-475.67
-476.82
-421.42
-478.15
-427.09
-413.42
-422.09
-518.93
-446.73
-491.03
-456.64
-480.95
-497.64
-460.87
-502.28
-496.74
-539.76
-453.33
-474.97
-463
-454.61
-454.6
-485.59
-475.74
-499.04
-456.64
-522.92
-447.7
-446.77
-431.65
-500.33
-477.73
-427.29
-466.65
-491.25
-451.04
-472.68
-460.11
-420.77
-446.46
-424.43
-408.52
-356.16
-404.26
-349.25
-349.22
-310.68
-317.58
-275.19
-340.61
-289.96
-247.93
-308.36
-241.11
-284.08
-240.73
-217.72
-150.21
-148.84
-131.11
-197.42
-102.12
-128.88
-153.08
-45.54
-59.74
-21.07
-98.95
-11.52
-41.83
2.24
1549.5
-24.12
-9.52
69.91
105.31
50.07
50.42
82.29
88.96
192.33
108.35
202.91
193.45
155.98
240.86
205.94
258.32
229.89
226.96
323.29
322.33
291.99
348.47
280.53
326.91
349.55
315.86
375.65
429.73
426.31
408.26
411.51
444.32
450.75
461.64
433.83
461.47
453.69
475.86
484.13
494.99
493.48
458.47
445.29
520.31
538.22