305.31
316.4
325.18
384.53
313.05
338.88
386.09
412.22
412.56
364.75
451.98
416.91
455.99
477.56
481.56
431.46
412.33
511.84
514.02
431.56
465.08
488.41
507.87
444.85
465.2
523.75
519.27
467.72
535.18
462.88
509.51
520.91
527.66
505.85
466.41
445.13
502.46
476.36
436.26
503.67
513.86
510.58
504.2
450.36
476.18
497.5
473.56
402.66
394.03
439.67
402.47
357.75
380.46
357.36
389.96
390.95
386.43
329.48
321.09
290.17
278.42
1815.71
247.68
270.27
219.54
210.35
226.88
196.41
182.9
207.17
130.92
165.59
188.97
150.39
108.24
146.05
129.43
65.33
92.27
52.87
22.23
-16.29
-41.07
-12.4
-7.9
-59.34
-79.61
-127.52
-117.72
-85.19
-101.03
-139.17
-117.41
-201.25
-187.59
-203.26
-216.04
-264.53
-201.35
-277.79
-268.04
-270.8
-330.36
-260.67
-308.21
-343.47
-346.84
-296.53
-363.47
-407.39
-341.16
-418.56
-345.53
-357.54
-445.87
-402.67
-472.9
-476.74
-491.54
-426.3
-489.66
-447.79
-424.45
-453.02
-441.41
-506.19
-495.88
-480.27
-492.95
-500.27
-472.67
-497.86
-470.66
-471.24
-488.18
-515.17
-474.93
-477.3
-462.56
-445.01
-485.45
-462.73
-469.77
-442.03
-459.01
-457.67
-429.22
-424.21
-472.03
-435.11
-401.72
-392.84
-467.58
-455.58
-446.84
-381.49
-397.25
-382.21
-334.84
-396.59
-360.61
-327.95
-377.07
-292.7
-269.34
-277.7
-251.86
-311.69
-249.13
-243.14
-272.74
-255.31
-232.13
-154.06
-165
-117.17
-188.94
-166.79
-133.04
-118.05
-120.59
-54.23
-25.07
-77.7
-73.64
-57.17
13.3
-9.97
65.01
48.15
69.46
122.13
139.95
139.7
78.42
151.82
122.46
115.82
166.92
228.02
234.22
202.32
237.16
200.4
240.8
274.95
234.47
343.19
338.64
319.34
380.65
343.77
305.28
315.28
376.87
402.2
426.59
430.14
378.66
415.57
392.75
399.75
469.25
402.35
493.29
466.54
441.36
476.31
2003.26
465.63
529.65
490.06
464.14
470.71
450.94
501.56
487.88
457.94
511.35
535.75
516.37
449.31
508.44
469.88
495.86
469.96
510.73
516.42
487.76
452.52
496.75
419.71
444.65
427.25
404.48
442.85
441.23
414.56
454.07
381.85
361.77
351.52
390.06
354.92
399.02
382.09
329.35
298.71
309.56
311.42
240.9
252.35
308.03
206.34
253.15
261.45
220.07
185.61
187.87
197.81
121.71
124.64
140.88
66.51
77.88
72.88
80.29
40.22
40.55
6.57
46.16
-43.26
-44.54
-62.56
-29.51
-116.75
-104.81
-105.47
-145.61
-176.35
-181.56
-117.99
-188.41
-198.83
-183.18
-191.15
-260.37
-291.96
-220.21
-263.39
-312.41
-248.79
-258.47
-296.94
-286.27
-358.15
-318.8
-374.29
-325.61
-424.92
-399.21
-409.12
-373.96
-450.01
-449.38
-393.04
-404.54
-467.95
-487.39
-479.62
-480.48
-508.84
-477.8
-518.4
-510.27
-493.07
-474.61
-524.64
-542.82
-477.32
-495.62
-465.13
-462.46
-464.33
-520.26
-472.98
-484.94
-542.47
-502.99
-509
-440.41
-435.9
-493.21
-488.03
-497.36
-422.62
-451.48
-412.5
-489.74
-420.08
-424.36
-408.68
-432.93
-437.54
-442.35
-365.9
-397.9
-402.79
-367.74
-324.75
-377.14
-370.31
-262.02
-291.72
-293.97
-283.91
-299.07
-273.1
-196.02
-187.31
-229.91
-206.14
-180.53
-125.93
-116.17
-113.65
-103.79
-130.27
-132.14
-114.67
-48.21
-14.34
-5.05
-54.6
-38.43
1549.33
34.7
11.51
34.29
33.32
106.21
93.81
88.91
157.45
182.68
196.05
181.98
192.83
171.12
246.42
186.55
245.17
204.43
294
269.16
305.35
338.75
332.31
372.42
386.11
299.88
333.34
347.26
392.62
355.99
447.9
420.17
404.08
398.76
414.25
433.66
399.99
474.42
433.6
479.24
454.62
463.6
460.54
455.04
516.63
524.16
479.31
485.31
488.26
495.48
504.09
454.95
515.08
532.39
503.72
479.92
463.15
477.11
441.78
469.12
500.03
457.69
469.85
475.84
452.65
456.8
481.46
476.65
427.75
474.68
435.45
446.97
402.27
389.56
395.01
366.02
369.89
319.95
303.78
341.97
322.7
292.57
264.72
338.79
306.77
221.61
234.05
220.01
180.12
212.14
151.59
205.39
174.56
136.42
155.61
124.71
157.98
100.47
104.18
19.37
14.13
25.44
22.97
47.01
-56.45
-5.99
-23.5
-20.36
-114.16
-100.39
-111.24
-142.79
-88.37
-186.62
-153.88
-170.56
-189.76
-192.08
-257.64
-230.44
-201.48
-264.66
-230.67
-305.79
-288.45
-286.7
-336.56
-325.2
-310.79
-373.98
-360.06
-338.57
-348.09
-366.27
-367.54
-407.9
-385.47
-398.43
-404.87
-478.15
-471.85
-439.31
-443.52
-468.98
-468.38
-522.34
-510.64
-499.52
-531.2
-479.78
-457.33
-489.24
-538.57
-495.54
-516.9
-518.6
-451.27
-526.76
-481.2
-507.36
-477.89
-467.65
-460.57
-522.35
-501.25
-435.38
1067.92
-476.85
-502.21
-471.93
-403.78
-462.47
-474.45
-475.6
-457.79
-447.31
-370.34
-392.77
-359.98
-382.68
-322.51
-340.51
-336.94
-342.28
-358.83
-302.94
-325.37
-260.96
-254.11
-272
-302.06
-195.01
-256.13
-212.63
-217.93
-216.96
-172.22
-110.04
-144.96
-174.78
-107.41
-69.5
-92.04
-21.2
-82.83
-59.23
-37.77
13.56
-25.55
9.08
5.3
94.23
15.25
47.73
99.87
103.05
134.6
122.05
108.87
145.4
140.13
222.52
196.02
224.92
238.27
228.5
270.08
249.7
278.56
335.18
358.02
280.03
361.71
338.65
375.76
338.91
350.34
355.15
372.69
400.06
420.04
461.67
386.23
398.46
425.37
488.62
457.28
440.96
486.56
472.94
475.29
450.25
515.42
486.94
443.61
518.17
454.67
480.18
538.98
470.69
535.93
511.62
532.34
523.65
482.1
536.21
458
474.99
452.83
457.16
471.74
477.27
454.41
473.19
495.04
436.41
440.32
475.88
400.54
403.39
405.54
422.4
401.5
415.63
340.46
337.21
363.38
332.73
324.93
313.13
314.9
286.12
283.79
293.43
278.93
222.92
279.26
250.12
241.22
201.82
191.86
170.88
192.81
163.08
133.09
139.63
123.67
79.61
98.91
91.41
56.13
13.77
34.22
0.05
-4.43
-8.92
-111.58
-49.16
-92.61
-145.09
-96.5
-94.48
-170.04
-143.64
-197.58
-233.92
-225.37
-264.44
-232.23
-214.04
-231.9
-313.44
-295.07
1170.08
-333.86
-332.13
-369.81
-348.94
-396.34
-360.69
-423.91
-392.88
-432.68
-398.51
-460.67
-384.84
-433.03
-416.41
-397.55
-500.05
-495.85
-482.98
-449.49
-464.38
-433.32
-520.25
-520.63
-508.73
-467.68
-484.22
-486.32
-448.88
-500
-479.26
-488.34
-453.71
-507.22
-484.89
-446.97
-504.28
-478.29
-513.57
-534.79
-492.96
-486.94
-497.57
-456.22
-464.39
-503.26
-452.16
-457.81
-436.18
-397.56
-423.35
-435.68
-379.48
-416.43
-359.94
-325.05
-392.73
-315.48
-384.78
-313.8
-358.62
-321.97
-306.67
-309.29
-308.45
-251.06
-203.97
-261.31
-224.74
-252.65
-214.93
-181.7
-122.57
-113.82
-150.48
-168.91
-145.2
-132.25
-113.85
-95.26
-72.12
-11.82
33.01
5.64
-5.88
73.02
3.34
39.2
78.94
124.64
92.75
84.09
114.35
124.86
141.56
144.21
196.69
246.38
189.76
267.89
240.56
253.03
320.71
270.9
283.22
346.24
348.26
308.91
384.84
330.32
328.68
351.04
354.04
353.3
430.43
402.77
405.28
378.29
396.69
425.67
416.61
499.58
508.27
492.29
498.81
499.64
513.1
450.88
522.1
476.03
468.19
503.64
465.68
475.39
454.68
521.26
507.62
456.45
535.3
530.82
464.51
474.72
522.62
482.18
465.57
480.67
461.58
428.43
433.37
489.09
426.21
410.45
398.92
433.41
442.56
376.72
422.81
357.15
374.48
357.93
332.02
355.14
309.98
329.29
310.49
322.1
340.27
1766.91
229.26
247.08
271.04
235.71
270.53
159.59
222.82
228.31
129.61
151.47
87.55
72.65
60.87
64.02
62.92
43.64
50.99
-2.9
-10.86
21.61
-22.12
-39.13
-73.77
-51.59
-110.94
-128.18
-58.06
-151.23
-166.98
-113.74
-174.96
-212.78
-210.8
-233.07
-204.42
-191.33
-252.77
-219.89
-254.74
-306.28
-297.39
-264.92
-346.9
-292.54
-320.22
-363.16
-391.69
-399.91
-345.28
-363.45
-395.3
-362.43
-396.86
-438.33
-445.67
-478.19
-466.68
-434.83
-413.73
-490.97
-430.96
-447.86
-489.69
-504.74
-463.7
-493.14
-511.3
-455.11
-529.43
-536.18
-478.15
-482.97
-484.12
-525.8
-451.73
-538.75
-492.88
-483.28
-518.75
-532.9
-467.42
-512.06
-477.88
-503.86
-500.39
-485.17
-415.15
-419.42
-420.29
-408.25
-427.33
-412.46
-435.75
-393.9
-410.34
-370.31
-366.31
-378.24
-317.5
-289.74
-356.49
-295.21
-263.07
-311.58
-261.79
-288.18
-251.28
-262.04
-211.76
-190.87
-245.61
-230.74
-192.13
-141.94
-121.43
-158.88
-66.34
-121.21
-54.63
-51.74
-85.79
-46.39
17.88
41.32
-25.74
32.82
52.12
67.64
86.58
71.37
109.01
155.86
167.3
161.94
161.56
221.3
208.18
247.63
202.3
266.86
228.77
232.45
248.26
259.6
339.77
346.04
268.51
288.83
376.47
318.52
336.36
331.71
407.07
438.24
426.76
428.62
377.23
447.61
393.21
415.72
462.38
406.18
498.44
490.41
511.92
438.65
461.1
483.1
528.14
488.63
484.92
475.11
506.71
498.77
538.1
451.45
467.91
490.11
508.6
488.03
462.86
533.25
473.88
526.46
463.93
467.54
427.09
492.39
459.33
417.79
404.36
421.99
423.52
426.38
394.67
407.67
455.3
350.37
373.86
395.37
413.25
377.51
359.93
370.65
309.62
336.65
275.3
246.19
237.22
221.52
284.05
231.23
192.02
259.41
189.52
195.19
207.46
184.29
190.63
128.23
107.98
100.74
123.58
28.07
5.97
38.88
25.43
4.06
-5.28
-4.77
-69.61
-58.84
-30.44
-105.82
-117.43
-106.01
-161.61
-158.07
-117.61
-217.28
-146.31
-204.31
-223.94
-196.66
-279.96
-225.86
-218.99
-235.52
-300.2
-346.8
-334.12
-302.75
-307.08
-302.75
-338.89
-412.14
-370.93
-392.86
-394.32
-395.99
-393.81
-470.85
-475.35
-389.04
-396.19
-492.97
-433.24
-477.46
-463.81
-519.55
-476.87
-486.88
-445.08
-467.08
-515.68
-467.77
-495.26
-510.49
-483.5
-521.69
-549.37
-472.87
-545.16
-498.07
-540.05
-496.61
-487.02
-437.56
-476.16
-435.21
-428.58
-503.15
-493.05
-504.56
-411.92
-492.41
-395
-399.36
-455.84
-407.17
-411.87
-371.38
-385.9
-379.43
-322.95
-388.85
-369.46
-328.69
-336.77
-348.63
-351.22
-341.74
-241.45
-241.65
-222.33
-229.35
-229.99
-197.92
-155.59
-192.26
-151.91
-143.15
-150.97
-112.68
-105.29
-143.03
-48.77
-30.62
-88.78
-7.56
-5.27
-32.45
1516.98
6.35
69.21
92.62
72.66
59.41
86.51
95.48
147.41
175.63
107.98
161.31
194.06
209.73
214.19
203.52
263.62
278.23
248.04
286.23
298.62
325.66
290.76
281.65
339.32
373.57
364.47
372.75
372.95
374.69
395.73
372.21
435.07
410.48
414.85
388.94
412.49
422.23
479.51
450.56
505.99
444.29
485.81
481.28
521.07
493.6
468.82
512.86
477.9
466.02
505.39
495.46
460.42
526.86
511.87
470.95
509.2
482.75
505.77
465.94
446.36
461.47
468.54
470.96
470.16
458.18
437.59
402.26
468.69
403.21
414.78
400.35
455.33
427.76
362.58
360.71
322.63
359.3
318.67
321.42
340.43
271.91
346.06
271.93
307.16
306.4
262.42
290.53
255.01
230.7
173.08
183.25
207.51
205.47
108.08
155.05
85.68
121.36
61.31
63.65
50.1
79.98
64.29
-10.85
-28.58
26.22
5.75
-66.14
-89.67
-123.57
-102.42
-61.02
-160.75
-159.66
-128.32
-193.34
-140.9
-213.62
-205.07
-175.89
-256.76
-264.17
-237.72
-276.77
-307.94
-332.94
-358.07
-297.05
-335.55
-344.86
-358.37
-336.77
-396.76
-348.23
-375.49
-418.28
-428.32
-437.98
-382.34
-478.06
-430.31
-412.85
-414.25
-510.68
-440.15
-519.75
-512.11
-462.86
-531.42
-493.89
-536.13
-499.04
-520.64
-528.21
-456.43
-541.94
-484.57
-508.65
-466.78
-545.75
-528.02
-446.29
-445.85
-496.29
-520.32
-446.57
-474.09
1012.75
-456.03
-415.9
-406.1
-491.37
-397.24
-450.91
-447.07
-433.63
-408.6
-442.62
-359.61
-339.56
-363.79
-383.27
-387.56
-303.69
-311.07
-308.53
-345.41
-275.68
-234.61
-245.7
-281.56
-268.84
-190.02
-176.44
-189.73
-200.68
-203.2
-119.17
-190.54
-172.76
-73.97
-62.9
-72.33
-91.38
-100.67
-90.61
-5.46
-51.08
5.78
56.44
38.06
17.67
35.45
36.62
93.36
148.1
137.13
100.92
168.22
185.35
155.17
153.42
189.39
224.87
187.66
223.76
225.57
286.55
279.72
283.73
304.98
283.76
307.2
352.24
357.21
409.07
387.71
378.76
421.34
410.28
377.42
432.22
424.69
420.36
464.47
470.75
464.25
459.43
445.54
443.73
458.44
505.67
458.05
442.2
455.58
467.78
498.45
465.47
520.04
535.85
511.67
483.08
502.87
527.53
496.8
475.21
478.13
491.28
504.69
495.18
447.78
440.68
422.65
487.87
424.21
416.59
451.74
431.61
434.84
392.09
458.37
453.51
435.25
426.59
409.06
356.48
305.62
327.35
326.26
280.26
262.64
275.68
272.69
274.52
233.96
278.39
217.87
228.13
158
156.55
161.6
141.9
156.12
122.88
92.72
117.08
47.5
73.41
29.25
-1.49
8.05
16.53
-24.26
28.47
-66.53
-25.55
-84.57
-84.03
-110.41
-108.32
-111.01
-127.87
-166.95
-187.36
-211.78
-221.02
-197.48
-202.66
-185.39
-224.45
-223.68
-273.96
-322.51
-265.47
-337.63
-354.83
-313.55
-335.83
-365.91
-327.37
-362.63
-422.72
-432.91
-396.67
-375.64
-409.39
-412.23
-460.84
-469.75
-459.85
-478.87
-467.68
-494.9
-471.06
-517.56
-458.81
-508.53
-450.45
-480.09
-450.17
-525.65
-463.15
-484.28
-514.02
-494.64
-450.27
-526.84
-519.72
-480.98
-460.19
-458.59
-461.45
-437.8
-525.9
-446.15
-437.07
-484.18
-462.49
-422.19
-456.29
-480.07
-401.24
-382.28
-417.65
-458.8
-356.54
-388.74
-424.49
-355.48
-356.03
-333.4
-392.89
-318.45
-312.24
-305.8
-279.74
-251.19
-235.98
-214.97
-220.62
-208.9
-186.35
-243.82
-200.76
-195.9
-156.95
-127.93
-180.63
-132.75
-153.09
-128.64
-124.22
-55.63
-15.2
-10.86
-4.48
-45.79
-7.31
-17.87
2.79
85.98
23.57
78.05
122.94
84.21
173.93
116.07
119.33
172.31
213.58
231.06
169.94
265.62
277.16
289.55
218.13
316.72
252.34
257.28
315.92
313.87
301.35
388.61
372.09
332.46
429.96
381.3
389.45
445.14
419.69
384.42
387.78
487.59
461.18
406.91
438.97
495.81
457.31
517.2
470.91
449.69
472.99
471.29
516.9
523.32
524.94
518.29
521.84
450.24
534.54
480.46
509.18
483.44
462.43
490.91
514.55
470.89
532.97
497.08
478.28
425.3
506.76
451.89
418.04
436.74
393.27
444.74
461.95
425.72
364.63
368.92
364.77
383.46
321.89
395.62
301.95
317.17
290.27
298.9
302.71
1793.42
268.4
256.99
221.49
207.42
200.33
224.82
219.35
186.91
156.29
136.64
177.72
115.52
79.49
84.05
87.84
30.72
93.23
15.69
-21.09
29.92
20.32
19.82
-66.55
-8.75
-31.49
-46.56
-113.38
-111.99
-174.26
-124.36
-133.96
-160.71
-158.36
-166.75
-249.87
-215.74
-209.98
-246.93
-288.33
-234.93
-330.47
-344.33
-291.39
-277.62
-381.96
-307.47
-323.03
-388.33
-360.25
-429.74
-401.36
-402.35
-427.5
-461.59
-396.06
-464.87
-419.85
-445.96
-414.32
-424.48
-504.14
-455.08
-496.44
-487.33
-476.1
-489.29
-450.22
-447.55
-484.82
-485.65
-497.24
-505.94
-534.65
-529.28
-476.63
-489.95
-450.89
-488.58
-490.06
-499.53
-447.7
-461.89
-506.97
-433.33
-445.2
-440.35
-431.41
-415.76
-422.62
-394.76
-458.4
-438.47
-416.97
-390.21
-434.41
-357.33
-347.22
-374.17
-353.11
-375.76
-331.52
-363.53
-342.73
-274.88
-271.35
-225.65
-283.6
-202.6
-183.53
-168.32
-168.06
-203.27
-168.11
-204.78
-102.1
-100.87
-129.69
-66.98
-69.57
-84.82
-22.17
-73.74
19.98
-31.95
43.05
21.91
25.36
97.93
90.1
89.99
137.39
131.37
96.92
168.49
116.16
174.84
169.94
165.17
180.58
264.83
269.15
208.44
238.43
271.09
258.17
270.69
333.52
305.71
371.24
312.17
384.82
338.08
346.41
366.12
349.28
408.83
438.71
409.05
436.56
448.36
417.53
494.07
489.56
500.97
419.08
516.35
1966.08
495.11
466.7
480.33
483.06
489.58
469.15
505.95
544.44
470.72
458.28
495.07
483.95
485.2
537.74
452.22
487.59
488.06
515.1
506.55
506.41
478.06
472.82
460.12
418.4
426.37
393.28
403.24
385.75
463.33
377.67
380.47
413.98
405.01
359.27
348.55
391.32
294.81
377.82
336.79
281.61
267.34
248.9
292.53
277.13
216.44
201.05
184.84
229.92
139.88
190.23
190.11
103.66
133.81
145.73
108
122.47
85.64
39.7
46.73
46.1
-13.72
30.11
27.25
-19.03
-40.77
-73.27
-108.95
-115.72
-156.06
-77.14
-155.94
-184.57
-120.21
-226.49
-186.76
-208.67
-256.28
-254.21
-256.28
-290.03
-260.12
-319.41
-280.43
-338.04
-353.33
-316.75
-330.05
-305.26
-382.65
-335.93
-365.52
-429.38
-429.92
-387.37
-436.45
-469.69
-480.67
-405.5
-411.72
-489.35
-482.47
-473.5
-498.17
-522.46
-472.89
-455.78
-536.97
-444.3
-517.95
-516.57
-506.37
-461.45
-481.16
-533.51
-466.82
-542.03
-540.14
-456.35
-453.06
-474.61
-503.82
-464.51
-527.23
-442.94
-471.43
-442.14
-437.2
-426.5
-410.96
-393.97
-397.13
-443.55
-393.17
-386.27
-412.93
-404.39
-376.06
-415.24
-336.66
-367.74
-335.33
-349.33
-327.25
-307.68
-342.35
-331.8
-298.62
-271.38
-229.2
-185.18
-187.68
-193.6
-223.43
-219
-150.8
-197.5
-122.88
-163.16
-105.56
-105.77
-67.73
-74.66
-7.19
-70.3
-55.86
37.58
34.11
67.25
53.2
78.47
53.7
48.58
108.19
97.41
142.85
105.18
133.93
226.76
204.6
193.11
268.36
197.95
273.25
237.66
310.15
289.61
292.19
267.06
364.59
301.28
308.49
337.34
351.91
358.89
340.55
365.98
394.31
391.22
393.88
385.97
428.65
482.87
498.74
437.9
501.74
448.27
499.98
512.31
494.77
511.29
519.45
515.87
493.42
478.65
532.3
544.19
488.37
519.05
528.46
455.26
522.62
499.38
481.22
471.15
530.13
508.3
506.1
516.97
503.76
491.58
482.96
422.8
439.1
406.84
477.68
418.99
402.23
426.36
451.1
379.8
432.71
378.11
355.47
320.43
323.91
337.1
275.77
262.14
298.14
284.29
283.56
264.02
226.19
246.42
226.06
214.51
197.77
144.64
165.45
173.74
168.04
101.02
115.78
51.35
99.67
17.26
3.26
70.49
-27.33
47.9
23.59
9.38
-70.42
-23.14
-91.78
-106.65
-85.27
-98.74
-82.87
-182.15
-118.61
-219.53
-169.19
-242.09
-200.85
-266.3
-242.68
-226.14
-260.72
-321.58
-294.59
-316.84
-284.44
-356.99
-306.87
-322.49
-330.67
-397.8
-347.43
-366.9
-389.59
-365.29
-413.36
-455.76
-384.13
-437.38
-457.81
-451.22
-437.85
-467.79
-446.9
-482.55
-472.51
-495.95
-479.27
-517.75
-532.32
-466.25
-476.24
-469.89
-516.67
-476.42
-468.26
-522.29
-478.17
-487.91
-501.16
-538.23
-474.18
-455.62
-459.52
-528.14
977.94
-457.86
-434.65
-412.17
-405.23
-475.31
-445.9
-422.7
-417.04
-426.26
-378.76
-410.3
-365.72
-349.69
-359.92
-346.91
-364.63
-285.16
-336.58
-290.37
-301.61
-319.97
-315.96
-229.58
-287.03
-224.21
-239.34
-171.05
-195.55
-160.38
-139.74
-143.68
-100.87
-166.72
-114.84
-59.53
-125.92
-71.14
-63.23
-25.87
15.44
-2.22
29.32
72.28
14.8
25.88
101.55
62.92
104.1
138.95
98.23
95.79
112.68
200.43
178.15
203.25
180.32
239.39
241.81
268.15
312.42
279.47
308.47
352.12
342.64
280.54
359.11
323.24
372.14
397.72
402.23
358.59
417.56
397.07
410.27
446.61
455.05
406.17
397.26
419.26
503.83
507.49
482.36
486.81
496.44
516.17
472.37
441.38
459.81
532.55
525.77
509.67
510.59
480.86
531.34
510.15
449.99
482.01
516.72
472.47
482.53
438.68
440.51
518.67
492.81
488.69
464.36
418.35
412.79
440.58
415.75
463.98
427.17
407.6
398.28
402.14
398.55
394.52
381.53
371.85
361.74
372.58
281.02
279.76
294.91
300.31
278.52
313.28
250.38
213.66
188.54
236.29
208.69
179.37
146.52
123.75
105.22
173.96
119.93
73.52
122.42
31.8
93.62
25.99
24.17
17.39
20.03
-65.73
-30.69
-16.52
-61.01
-52.6
-138.57
-93
-82.89
-190.75
-189.09
-179.98
-224.3
-233.13
-168.37
-185.68
-267.7
-267.35
-282.62
-295.8
-319.37
1236.06
-288.31
-315.59
-297.25
-360.36
-362.08
-367.93
-390.53
-397.33
-365.26
-385.97
-406.98
-468.65
-462.17
-473.13
-431.76
-486.22
-429.4
-454.8
-490.05
-442.35
-459.03
-475.69
-442.89
-441.97
-477.27
-540.06
-448.16
-536.09
-488.38
-525.35
-478.3
-478.74
-514.71
-457
-513.81
-491.24
-456.78
-535.11
-471.85
-432.43
-502.14
-519.88
-456.22
-427.69
-486.68
-422.81
-442.32
-412.58
-383.59
-373.01
-448.84
-386.11
-406.93
-425.1
-364.36
-337.13
-380.38
-291.11
-280.16
-293.96
-310.37
-274.29
-325.68
-280.4
-211.48
-280.29
-212.68
-202.65
-203.3
-235.93
-164.33
-118.5
-173.47
-161.88
-136.65
-127.86
-78
-33.97
-66.56
-72.79
-37.87
-57.23
10.06
-20.32
52.04
90.89
105.55
73.29
121.08
116.61
173.65
150.07
146.16
187.01
205.68
226.9
197.47
178.09
256.88
245.67
221.19
252.84
274.07
310.6
349.96
358.99
290.05
317.48
354.98
323.3
327.93
386.35
419.82
357.99
433.58
446.15
444.65
428.8
428.97
434.01
438.93
477.41
504.82
457.84
465.53
488.64
511.91
489.66
495.95
473.29
511.41
535.27
534.45
533.74
470.7
530.77
474.11
530.98
534.16
466.52
490.62
531.82
443.23
472.65
447.74
483.23
447.55
469.79
471.99
448.49
487.15
407.89
393.72
387.45
450.92
376.11
400.4
404.46
363.9
350.3
319.49
346.2
333.55
360.34
297.24
273.25
248.08
237.9
292.68
210.51
243.78
231.03
171.25
168.19
131.32
168
101.83
180.75
139.31
105.18
130.72
49.91
15.11
29.73
28.82
8.17
-14.32
-52.95
-59.93
-43.89
-84.49
-110.87
-121.28
-111.92
-137.29
-168.75
-111.04
-209.59
-142.7
-202.88
-194.61
-253.91
-185.19
-208.23
-295.04
-232.8
-245.35
-293.63
-278.9
-367.41
-295.63
-335.28
-376.55
-323.24
-392.34
-410.49
-378.26
-397.13
-373.24
-439.75
-445.55
-480
-436.1
-458.05
-504.18
-416.41
-507.7
-490.99
-517.15
-433.24
-483.61
-522.87
-514.37
-542.32
-542.1
-465.59
-459.6
-456.47
-478.62
-471.79
-508.55
-454.08
-450.41
-461.74
-481.59
-478.89
-488.2
-458.97
-428.01
-479.94
-486.69
-474.59
-488.67
-402.06
-416.46
-406.02
-431.61
-440.38
-431.03
-393.41
-396.41
-368.93
-371.91
-392.99
-379.25
-365.3
-285.83
-324.21
-297.02
-287.75
-266.6
-308.63
-264.21
-280.07
-201.52
-245.31
-218.97
-225.6
-137.01
-202.64
-179.84
-93.51
-118.35
-114.62
-133.51
-83.77
-23.32
-42.3
-52.96
-39.1
15.66
50.42
64.33
2.46
93.09
73.14
44.85
142.71
146.17
104.73
169.28
207.38
214.62
222.15
236.5
247.99
274.96
261.95
253.76
289.36
280.96
315.06
259.28
275.24
318.11
326.48
380.98
352.17
354.88
340.98
422.95
403.18
401.2
449.8
437.28
397
429.94
452.12
479.47
457.82
512.09
495.05
2012.69
442.66
466.78
530.69
532.1
474.98
500.63
499.64
509.68
526.71
494.15
486.68
532.54
533.75
510.13
529.16
477.15
479.33
439.74
495.4
436.19
472.34
504.15
486.48
497.69
429.33
406.37
416.85
399.04
426.55
432.2
433.63
423.31
400.17
337.88
356.71
344.74
322.93
326.06
340.17
294.7
323.51
273.49
289.33
238.44
243.51
274.19
246.18
236.26
218.63
208.35
213.7
164.27
159.86
138.63
137.98
47.15
106.29
26.64
30.46
61.6
-5.9
12.02
10.82
9.57
-10.81
-40.04
-98.17
-122.18
-110.88
-162.07
-122.21
-153.58
-178.12
-192.45
-228.17
-173.55
-180.44
-225.73
-281.79
-272.83
-271.63
-294.84
-271.4
-265.2
-299.13
-285.51
-343.58
-365.42
-332.63
-355.59
-393.41
-342.29
-449.56
-365.28
-427.57
-388.5
-408.63
-409.38
-488.66
-459.94
-501.39
-478.18
-441.17
-441.69
-507.56
-514.79
-458.58
-443.43
-534.76
-493.75
-525.29
-505.79
-481.8
-517.59
-453.92
-526.23
-503.71
-459.57
-473.4
-484.3
-498.02
-480.29
-492.97
-478.65
-494.44
-456.09
-455.87
-414.84
-417.67
-411.55
-454.32
-462.55
-448.18
-440.83
-438.19
-419.62
-435.34
-414.62
-348.72
-306.9
-326.66
-294.78
-280.94
-307.55
-318.29
-268.77
-306.03
-312.29
-238.49
-239.28
-220.35
-254.26
-238.49
-159.27
-199.71
-182.47
-133.82
-104.03
-96.95
-53.14
-49.95
-105.78
-1.75
-76.8
-31.61
-2.95
1543.91
7.66
5.69
49.43
63.47
79.31
76.8
103.6
102.54
112.31
155.72
140.13
163.82
150.99
180.23
189.49
208.97
226.49
305.86
246.34
308.29
347.83
292.82
341.55
362.74
355.38
366.57
353.33
425.45
411.79
390.23
435.87
387.32
456.09
413.28
411.29
496.7
494.04
462.34
419.01
438.8
473.96
472.91
458.78
456.56
441.58
516.03
474.81
483.75
542.18
501.38
497.46
478.44
533.82
493.95
505.69
520.62
533.92
504.9
510.16
484.82
528.97
465.85
517.4
504.09
462.01
458.51
409.76
391.04
401.01
441.52
463.97
371.33
382.15
397.38
373.36
324.08
325.89
309.37
382.04
353.22
297.91
301.28
268.08
319.65
284.9
260.18
278.05
227.67
168.27
192.65
161.02
213.34
149.74
153.04
107.13
134.08
88.68
95.3
76.17
76.93
3.63
53.28
20.43
22.2
-48.12
-18.75
-29.6
-99.96
-114.83
-102.68
-82.94
-156.96
-163.38
-163.99
-185.13
-157.02
-216.22
-228.93
-206.11
-197.07
-247.14
-240.78
-288.92
-285.33
-260.11
-305.2
-316.64
-355.22
-353.14
-375.77
-340.84
-386.81
-379.14
-349.65
-360.71
-384.16
-405.6
-409.11
-418.28
-424.45
-481.25
-491.8
-459.29
-445.9
-452.45
-465.98
-452.54
-447.63
-448.3
-462.96
-520.37
-452.62
-507.17
-512.16
-498.02
-451.31
-531.36
-454.69
-523.36
-536.47
-479.64
-487.03
-450.21
-512.33
-497.36
-439.4
-436.35
-422.23
-460.26
-498.05
-429.07
-402.94
-404.99
-449.5
-402.52
-369.06
-381.55
-367.17
-378.23
-347.72
-375.19
-321.68
-334.55
-333.83
-305.09
-302.35
-338.75
-314.29
-264.39
-213.51
-232.27
-210.55
-246.75
-233.29
-216.98
-221.3
-206.74
-127.37
-173.9
-93.51
-79.51
-108.71
-66.07
-20.22
-26.51
-42.58
-52.95
-28.02
24.27
-6.64
22.96
69.54
98.67
62
136.08
106.87
138.62
150.34
184.61
138.48
154.06
183.72
255.72
258.1
248.05
311.33
291.62
314.95
256.54
326.33
326.19
384.28
309.56
307.27
398
346.61
387.62
398.29
413.42
365.57
454.7
442.45
421.72
437.65
416.41
486.01
479.67
466.91
453.38
487.77
478.69
437.15
506.98
454.34
481.48
522.17
515.79
471.25
494.64
468.65
498.17
528.86
525.31
504.52
479.84
488.33
448.38
494.5
464.95
458.51
429.43
502.33
485.88
447.6
439.58
406.03
472.5
455.23
462.88
430.28
392.32
364.58
404.82
356.98
344.61
315.63
292.28
292.15
302.03
331.48
260.88
327.77
306.95
215.59
196.55
235.16
207.5
170.7
176.33
198.33
157.35
141.69
145.17
105.47
138.62
78.23
45.42
71.92
0.47
-5.53
-10.04
40.91
26.98
-79.91
-55.91
-65.04
-125.27
-99.85
-96.28
-119.18
-112.52
-112.37
-190.96
-186.04
-189.99
-166.71
-180.62
-232.91
-238.92
-293.48
-278.33
-327.45
1186.03
-297.48
-335.44
-365.2
-311.17
-351.13
-374.41
-352.41
-409.95
-422.44
-429.16
-392.23
-431.3
-405.83
-391.33
-448.34
-484.44
-453.04
-431.99
-421.12
-450.33
-456.17
-528.35
-509.2
-495.2
-521.43
-509.4
-515.26
-521.1
-455.83
-479.2
-534.97
-504.3
-451.28
-476.02
-545.06
-515.35
-481.81
-534.97
-485.14
-516.65
-467.98
-492.4
-436.36
-465.68
-417.8
-453.15
-410.77
-484.16
-386.71
-461.5
-449.7
-430.11
-376.18
-401.05
-330.62
-380.67
-358.88
-344.74
-305.28
-336.65
-323.01
-326.78
-238.92
-287.12
-219.42
-262.15
-255.31
-208.64
-231.09
-206.78
-187.17
-122.21
-113.49
-173.32
-98.25
-126.91
-122.25
-54.86
-53.61
-27.84
-72.45
-12.63
30.76
56.82
-19.29
90.9
26.18
70.04
63.78
110.94
144.98
122.93
135.8
201.69
194.76
171.1
207.91
248.75
276.13
209.94
304.87
244.28
298.47
317.48
282.66
345.69
324.23
307.75
317.18
356.22
327.63
337.61
346.57
394.17
444.76
382.99
400.26
438.83
464.18
429.67
469.77
469.76
502.77
496.42
464.1
489.4
476.49
523.98
488.55
456.36
477.52
496.7
531.75
502.38
481.59
508.56
533.88
478.12
539.99
447.87
462.73
483.58
460.94
506.11
432.83
443.04
485.57
509.26
495.84
476.85
442.46
461.5
472.87
407.44
380.87
402.88
355.19
335.9
390.54
383.89
380.36
332.38
346.25
323.12
292.43
315.73
1740.41
272.09
257.05
248.82
248.24
257.01
231.75
237.67
216.24
128.83
122.98
100.5
112.2
149.76
68.34
45.79
75.77
79.44
-16.62
-14.63
-18.67
30.81
-5.05
-60.36
-22.78
-23.76
-77.82
-148.02
-100.93
-153.94
-178.53
-186.54
-203.24
-202.16
-232.67
-263.92
-214.66
-246.38
-214.42
-287.4
-254.49
-276.32
-302.69
-321.49
-374.78
-319.83
-357.11
-320.71
-402.12
-349.56
-413.06
-425.61
-435.64
-404.17
-468.91
-482.76
-439.06
-488.2
-501.57
-451.68
-441.67
-422.53
-503.66
-522.52
-495.97
-513.38
-483.08
-529.53
-480.56
-540.64
-537.84
-491.38
-524.11
-454.38
-543.09
-452.05
-457.58
-525.9
-517.21
-481.33
-486.96
-448.57
-498.45
-500.67
-424.64
-487.83
-490.37
-403.53
-425.43
-446.75
-464.94
-434.28
-401.63
-453.15
-441.68
-340.63
-383.52
-411.14
-342.13
-372.59
-378.65
-345.48
-315.25
-315.78
-245.9
-225.81
-247.89
-220.17
-186.97
-268.43
-175.36
-240.18
-156.9
-207.51
-201.34
-125.9
-85.03
-108.42
-69.44
-45.53
-16.82
-14.22
-59.57
14.39
-19.81
10.19
68.51
56.19
48.01
41.54
41
135.3
97.81
144.3
158.12
202.23
214.12
218.38
161.09
201.22
211.74
205.21
299.91
306.2
320.06
245.97
310.77
272.26
281.65
382.28
347.6
365.18
341.31
414.79
433.92
380.91
390.92
398.42
427.89
479.44
430.57
467.95
437.01
474.66
484.52
456.83
497.39
464.89
486.21
531.47
501.09
505.94
531.12
501.07
494.1
527.72
494.47
531.32
458.39
480.09
474.43
448.55
485.6
491.18
445.27
439.5
475.24
524.44
477.44
503.61
460.95
459.99
407.46
429.42
469.3
416.29
452.6
366.2
420.47
402.83
428.35
334.42
397.63
326.77
322.53
358.85
317.54
279.06
318.96
297.12
228.98
208.35
205.64
225.37
168.33
245.9
153.4
132
187.67
94.21
136.13
93.1
142.68
68.31
99.95
76.12
23.3
65.63
-11.93
-52.28
5.99
-35.25
-14.46
-56.88
-113.49
-49.69
-101.52
-118.6
-145.71
-183.03
-177.27
-193.12
-179.1
-176
-182.91
-214.43
-287.93
-259.5
-311.57
-265.07
-268.37
-287.37
-346.11
-359.56
-393.52
-371.22
-408.19
-401.25
-396.36
-444.74
-412.96
-405.28
-433.22
-461.26
-487.05
-441.03
-489.02
-475.76
-472.58
-446.88
-497.73
-464.36
-438.39
-516.47
-512.29
-484.64
-446.82
-522.78
-495.37
-466.28
-545.98
-480.68
-476.09
-536.48
-512.53
-446.55
-467.56
-514.31
-439.55
-522.82
-442.34
-431.2
-456.64
-439.99
-423.64
-413.36
-455.75
-390.2
-463.88
-472.88
-433.06
-380.41
-401.63
-386.5
-374.67
-356.49
-399.75
-392.3
-292.82
-313.48
-284.93
-331.82
-313.56
-314.14
-284.27
-253.47
-267.44
-259.66
-218.38
-247.8
-235.92
-138.97
-108.43
-148.95
-113.6
-74.86
-124.74
-102.08
-55.84
-27.51
-14.39
-45.96
34.68
1464.05
4.98
3.23
89.3
34.93
123.11
127.94
88.29
110.55
160.24
190.02
170.93
223.03
170.86
174.25
214.43
231.86
245.64
214.51
225.9
322.8
315.77
343.35
303.46
327.23
345.39
323
356.04
331.37
375.35
395.88
375.93
462.87
448.89
438.18
398.72
443.59
418.54
481.5
495.1
475.19
465.65
459.85
452.61
460.44
477.14
487.96
460.24
486.76
545.35
452.37
544.44
521.85
500.78
505.23
543.48
530.49
454.86
471.69
442.76
518.73
456.08
429.95
517.74
499.36
493.6
443.14
440.5
410.46
465.96
451.54
438.16
421.97
420.86
385.26
361.13
395.18
352.23
378.87
299.68
328.58
294.41
314.94
301.21
231.62
304.58
254.79
218.01
195.64
229.55
248.79
218.79
189.89
127.79
156.54
159.93
156.04
146.3
75.07
97.31
59.59
54.09
16.18
32.11
8.01
-8.32
-76.23
-94.41
-90.96
-82.2
-51.17
-87.6
-99.49
-119.15
-148.27
-190.85
-189.44
-177.76
-161.86
-172.71
-198.16
-247.04
-212.26
-257.55
-310.85
-307.17
-273.35
-278.24
-381.15
-335.77
-370.8
-360.42
-404.33
-360.51
-384.26
-411.77
-454.93
-389.53
-438.78
-460.3
-491.84
-492.85
-430.39
-487.54
-432.12
-499.79
-463.67
-502.65
-517.22
-524.58
-495.07
-533.68
-463.47
-474.02
-454.07
-470.17
-529.14
-491.07
-540.19
-521.4
-533.47
-475.7
-519.67
-530.85
-522.66
-475.63
-488.41
990.28
-484.22
-478.65
-415.09
-443.89
-444.79
-478.01
-406.41
-370.03
-422.92
-393.47
-351.76
-390.05
-398.66
-408.16
-347.56
-389.88
-377.07
-281.45
-355.33
-269.41
-269.41
-280.77
-260.78
-236.83
-225.79
-182.41
-226.62
-218.92
-173.15
-150.37
-142.31
-99.68
-113.06
-101.06
-66.94
-121.78
-17.4
-9.78
18.76
-19.73
-24.63
-12.63
4
67.54
108.92
64.29
52.8
130.03
70.06
155.39
140.27
180.92
193.82
148.58
233.21
230.71
199.39
240.48
282.19
239.37
265.04
287.32
303.48
270.05
321.59
324.68
341.4
376.37
386.22
396.82
377.24
398.65
455.91
386.62
393.65
391.07
469.61
490.05
415.92
470.8
487.34
465.48
428.58
490.18
504.91
482.92
508.05
515.43
533.83
491.06
530.8
522.9
495.48
513.27
500.18
502.62
487.92
505.43
502.23
521.16
473.97
511.43
500.35
515.8
516.3
498.02
455.46
483.87
473.46
424.77
381.51
376.19
368.09
426.79
444.07
344.62
335.7
415.18
357.65
391.5
353.84
274.05
339.52
279.78
298.46
225.29
292.08
244.83
229.13
195.71
172.64
233.63
214.03
201.9
152.85
142.08
155.59
85.17
96.72
42.44
19.95
41.09
-4.7
-23.23
32.47
-26.77
-49.6
-13.95
-88.05
-103.82
-136.52
-149.97
-130.78
-132.09
-177.05
-210.09
-218.62
-158.42
-246.12
-205.65
-189.37
-258.7
-275.98
-299.12
-255.57
-286.5
-295.44
-359.97
-301.38
-371.62
-362.78
-318.29
-377.37
-403.88
-387.81
-432.03
-448.78
-414.05
-466.69
-432.04
-490.64
-402.52
-495.98
-494.48
-443.34
-466.03
-519.54
-500.62
-486.08
-492.32
-535.82
-513.84
-483.59
-451.57
-512.65
-530.35
-501.5
-505.18
-483.95
-499.78
-481.04
-484.39
-454.71
-490.49
-447.71
-518.29
-435.5
-464.09
-502.11
-493.9
-475.37
-453.65
-445.83
-460.29
-472.98
-381.31
-437.17
-430.99
-430.98
-350.4
-354.84
-369.52
-381.43
-340.26
-316.77
-348.8
-320.07
-332.84
-311.48
-230.07
-289.42
-213.26
-230.12
-176.83
-233.76
-216.48
-165.84
-165.56
-112.44
-138.42
-161.68
-118.46
-94.21
-54.26
-18.08
-69.91
-77.02
-29.94
-9.84
3.86
5.32
4.75
38.64
77.53
108.68
79.83
80.75
127.47
143.69
117.93
148.06
208.96
210.91
243.57
211.61
240.41
214.39
266.76
250.6
286.54
316.49
333.25
349.29
319.36
394.7
356.07
370.74
389.1
392.26
408.78
446.18
428.37
449.72
439.75
420.51
447.82
471.93
468.24
483.83
515.86
516.76
527.55
443.48
511.59
451.36
471.88
521.96
531.4
503.49
533.97
456.81
459.83
537.39
522.85
448.17
460.51
479.86
503.13
464.82
481.12
466.47
499.95
453.4
496.66
464.23
473.7
396.97
464.47
439.02
442.62
432.46
407.46
424.53
368.05
386.56
413.5
347.35
364.02
349.52
344.68
276.75
266.44
1783.14
240.57
223.15
228.12
206.17
204.37
202.45
152.85
224.2
205.85
126.14
95.18
172.24
80.88
130.51
66.69
102.74
49.14
-7.46
-7.29
53.25
-22.45
26.68
-2.33
-34.44
-21.64
-121.99
-131.26
-156.35
-127.69
-148.44
-118.29
-187.93
-179.07
-179.49
-225.41
-254.4
-234.78
-275.7
-271.1
-250.89
-288.68
-267.57
-351.78
-336.71
-325.12
-331.06
-330.14
-412.71
-336.78
-341.63
-438.76
-402.38
-393.81
-434.47
-468.8
-415.4
-468.06
-449.22
-485.33
-419.02
-437.08
-507.13
-500.25
-504.82
-479.3
-465.28
-509.11
-502.24
-526.06
-469.52
-490.25
-487.9
-458.51
-465.92
-485.76
-473.05
-475.74
-540.09
-444.21
-443.42
-463.99
-491.58
-467.94
-513.54
-470.32
-506.26
-404.43
-397.57
-450.27
-466.44
-376.52
-423.87
-428.25
-406.54
-401.37
-410.26
-336.21
-323.58
-311.64
-291.55
-311.34
-276.12
-343.67
-297
-318.26
-249.96
-218.49
-224.93
-187.14
-170.93
-182.22
-227.2
-142.52
-116.96
-156.07
-126.17
-111.69
-144.24
-90.75
-84.93
-38.18
-22.41
-7.51
2.43
10
5.81
51.66
43.99
26.8
103.91
54.26
113.62
103.08
146.05
177.07
209.3
213.03
241.38
173.18
223.09
247.4
236.78
282.08
233.66
242.75
316.05
313.68
305.14
362.95
328.86
385.95
378.28
405.82
359.7
432.2
392
376.39
432.84
388.1
481.21
468.42
476.71
422.41
498.65
480.72
493.45
1992.51
436.16
446.85
492.32
483.42
463.42
479.75
490.19
459.59
543.44
541.43
488.76
497.84
471.61
518.65
538.12
442.81
484.25
534.49
433.18
450.8
446.74
491.82
501.92
429.55
467.22
479.01
408.74
432.85
433.13
432.91
441.24
392.67
430.71
363.13
386.91
301.58
335.99
349.27
348.15
350.4
246.76
258.51
302.53
230.93
209.51
267.69
227.53
206.71
228.19
148.86
195.48
116.88
156.07
154.3
92.73
60.17
45.6
80.39
1.35
37.85
-21.65
2.03
28.96
-47.17
-58.89
-46.94
-64.4
-111.17
-133
-76.12
-104.87
-144.69
-210.82
-145.42
-220.96
-226.1
-245.52
-283.71
-291.36
-268.98
-259.43
-246.08
-279.16
-324.63
-356.1
-320.45
-362.88
-341.95
-378.75
-381.97
-407.48
-381.43
-437.67
-384.17
-371.33
-446.99
-461.01
-462.52
-473.19
-435.18
-485.15
-503.3
-507.75
-442.23
-512.76
-477.17
-475.82
-508.18
-453.69
-525.74
-483.47
-477.99
-455.64
-544.07
-456.13
-462.98
-507.82
-488.03
-537.12
-454.09
-505.9
-519.2
-458.71
-445.92
-439.94
-443.12
-415.94
-430.83
-423.61
-426.69
-440.71
-384.74
-373.57
-415.34
-375.52
-353.02
-374.01
-358.36
-354.71
-354.98
-350.01
-298.66
-293.71
-262.09
-334.64
-300.25
-312.81
-301.96
-280.05
-191.4
-237.49
-166.69
-226.18
-214.73
-174.94
-117.21
-96.95
-128.26
-142.96
-49.14
-70.18
-109.82
-18.16
-28.48
-57.39
1466.33
-22.74
3.43
67.71
14.99
82.67
99.96
151.93
96.81
120.48
112.15
133.28
193.86
227.35
162.42
259.6
230.31
276.44
240.1
317.84
240.05
321.47
296.78
357.07
339.26
309.37
319.73
410.43
326.45
363.76
397.38
434.53
421.34
375.9
385.41
454.66
408.49
488.88
496.54
495.91
451.63
494.69
516.55
448.07
501.9
465.71
469.3
510.9
449.65
531.71
529.67
524.25
546.44
504.01
480.8
534.42
478.78
508.67
513.72
516.92
437.9
467.97
468.05
490.34
448.22
417.53
457.59
431.21
418.76
480.81
414.6
377.23
376.76
386.77
434.6
371.17
364.11
336.02
400.44
320.04
346.91
329.52
302.4
335.64
315.89
239.91
235.64
241.05
261.14
269.22
215.5
167.46
224.2
209.12
182.04
97
119.38
88.08
84.64
96.13
14.53
31.34
32.45
13.22
-32.73
-41.97
-58.97
-26.99
-40.22
-121.26
-79.69
-73.77
-87.48
-108.61
-120.89
-194.71
-190.41
-204.22
-247.28
-248.65
-218.47
-259.51
-294.44
-243.6
-312.48
-303.64
-309.24
-282.4
-282.89
-365.13
-306.4
-386.42
-420.37
-399.71
-356.41
-412.19
-389.12
-422.81
-458.01
-448.7
-404.97
-399.74
-474.8
-419.39
-469.41
-431.08
-463.7
-485.62
-473.37
-466.54
-452.97
-447.4
-481.08
-453.45
-504.4
-503.93
-502.56
-534.41
-483.71
-521.35
-502.11
-495.55
-460.5
-487.47
-509.63
-474.44
-504.69
991.75
-504.55
-430.55
-448.73
-456.68
-484.11
-418.36
-400.16
-471.53
-404.74
-429.05
-424.06
-392.03
-377.44
-390.18
-325.55
-303.87
-291.44
-328.4
-361.88
-275.6
-280.11
-256.71
-255.5
-217.08
-220.55
-177.42
-248.48
-227.99
-219.07
-118.73
-137.24
-143.36
-134.37
-143.77
-117.79
-126.77
-55.71
-11.57
-75.62
-10.96
25.42
48.52
6.89
6.32
70.98
87.74
89.59
137.06
86.03
102.52
180.44
125.12
200.68
201.72
191.59
246.19
254.18
266.49
265.17
253.98
278.81
297.45
266.79
281.47
321.25
322.52
316.16
335.1
420.29
378.39
417.07
402.23
430.4
370.71
442.21
481.07
460.87
410.68
500.98
429.73
489.27
484.46
474.65
435.65
450.93
519.02
464.4
537.84
537.63
452.88
501.77
530.43
460.71
454.35
489.39
514.5
465.46
480.81
459.6
488.79
496.66
472.71
517.38
460.21
433.5
482.82
465.83
437.24
427.68
448.14
396.37
377.06
420.26
411.77
349.86
357.2
336.46
364.4
373.84
370.14
378.02
365.48
297.82
264.32
309.65
237.18
242.12
224.89
190.77
199.74
173.16
158.88
229.17
204
124.39
120.42
125.49
82.22
106.16
76.43
41.9
27.13
8.34
34.98
43.04
24.34
-65.37
-32.93
-27.25
-114.12
-64.18
-143.75
-89.42
-143.56
-134.08
-164.63
-174.83
-140.74
-227.2
-251.24
-180.58
-236.6
-211.46
-245.08
-245.85
-285.85
1243.98
-319.38
-312.66
-386.65
-388.8
-309.19
-389.91
-329.03
-345.88
-394.19
-445.71
-436.03
-454.68
-441.29
-392.35
-420.95
-480.8
-426.49
-418.94
-439.78
-452.78
-460.83
-483.52
-485.42
-506.38
-483.09
-510.3
-519.1
-542.77
-497.35
-549.61
-539.39
-495.44
-534.8
-491.54
-505.68
-453.43
-464.88
-503.56
-467.98
-525.09
-450.24
-499.66
-456.52
-504.99
-450.89
-410.22
-458.51
-409.53
-467.73
-427.56
-433.18
-423.99
-439.93
-374.72
-321.84
-392.29
-323.63
-289.41
-300.56
-316.12
-260.61
-335.32
-308.89
-251.88
-242.08
-275.98
-196.69
-226.4
-222.21
-227.35
-152.72
-176.01
-165.1
-89.64
-96.81
-100.61
-82.92
-67.05
-11.66
1.54
-29.31
26.75
-31.27
5.59
18.34
15.96
25.74
37.84
107.8
129.96
125.76
137.64
151.61
194.2
197.32
203.65
163.21
209.62
198.53
228.66
264.14
302.16
261.8
281.07
322.18
348.01
367.38
374.89
327.09
332.05
359.02
355.6
371.18
430.14
441.38
429.42
402.59
414.07
394.88
417.84
417.06
451.27
517.88
436.62
448.69
523.88
487.24
446.76
496.17
525.7
532.66
509.65
535.16
521.99
471.47
491.06
474.34
470.04
521.85
535.85
442.33
532.43
525.42
497.5
490.79
470.41
483.32
503.49
444.7
426.36
435.44
471.97
442.33
442.25
416.48
404.83
432.85
345.9
399.16
411.76
314.35
389.56
285.83
352.06
307.07
1822.73
307.84
300.53
304.82
205.27
209.63
240.99
231.69
232.44
150.47
115.81
116.16
121.5
107.47
137.42
77.43
121.35
71.76
26.65
32.96
51.51
-6.32
-19.83
-56.46
-9.13
-79.79
-45.2
-55.4
-148.56
-109.88
-141.91
-104.79
-140.78
-140.44
-193.84
-229.89
-217.86
-279.96
-199.03
-296.32
-297.67
-286.04
-335.99
-295.88
-286.72
-338.83
-367
-392.5
-349.86
-389.67
-423.7
-375.63
-399.72
-450.53
-454.44
-474.1
-468.96
-478.13
-447.4
-408.94
-439.3
-467.37
-517.08
-474.07
-433.53
-501.85
-480.01
-453.35
-505.14
-489.81
-492.82
-512.76
-480.85
-485.51
-471.32
-489.02
-527.27
-486.6
-464.95
-519.2
-481.56
-516.25
-481.3
-491.46
-434.82
-455.46
-443.8
-421.11
-429.48
-431.01
-389.05
-446.71
-377.85
-371.6
-419.43
-427.62
-335.63
-344.04
-408.6
-329.98
-308.75
-320.65
-352.74
-292.56
-333.05
-255.31
-231.35
-280.26
-211.4
-231.14
-256.63
-164.17
-225.59
-217.97
-180.27
-157.12
-136.32
-94.58
-58.83
-117.84
-47.01
-19.21
-33.85
-71.08
-39.65
-39.62
44
39.63
48.95
14.35
37.28
57.45
107.43
119.03
139.1
128.9
163.51
159.03
224.09
189.3
220.97
234.1
215.62
250.87
263.99
280.62
289.75
339.72
320.35
301.27
312.32
373.4
326.7
408.91
380.31
355.78
433.19
374.45
370.31
428.61
473.24
470.2
467.08
434.08
473.34
429.15
465.24
2021.7
515.64
463.07
477.31
524.38
541.03
457.68
458.74
458.5
465.63
532.67
476.06
545.44
514.63
531.37
522.68
487.46
537.91
447.15
491.39
504.32
516.11
471.9
421.98
410.43
435.79
437.14
399.94
409.33
440.87
372.85
396.4
405.05
381.85
386.09
320.87
316.32
360.13
305.94
321.85
310.09
292.46
288.36
292.95
289.32
276.99
197.17
221.95
232.8
169.75
138.94
153.29
126.88
144.58
142.45
90.7
85.19
37.82
15.31
23.36
71.56
10.64
-19.1
12.68
-18.84
-52.6
-97.17
-29.43
-117.95
-121.54
-97.71
-100.13
-189.08
-122.59
-162.25
-192.43
-242.98
-216.25
-263.49
-243.45
-266.03
-261.79
-317.44
-299.35
-329.46
-336.63
-330.32
-325.36
-330.56
-353.24
-353.82
-356.65
-358.22
-429.07
-435.88
-398.63
-470.09
-399.6
-490.36
-488.75
-479.41
-502.47
-505.46
-515.6
-516.47
-450.32
-480.14
-447.39
-506.16
-485.74
-508.47
-461.12
-465.24
-451.43
-464.15
-500.44
-508.68
-449.15
-463.92
-460.08
-480.41
-532.82
-457.74
-454.84
-476.68
-485.71
-419.08
-423.78
-496.45
-418.1
-444.54
-402.96
-440.91
-372.41
-415.3
-418.44
-349.52
-379.64
-375.54
-348.37
-352.06
-332.63
-338.53
-329.54
-300.25
-262.64
-269.83
-255.29
-261.05
-230.3
-238.48
-202.86
-252.24
-243.95
-185.42
-131.82
-154.25
-187.45
-92.91
-71.39
-97.64
-89.97
-111.89
-94.04
-52.08
-5.68
42.29
1496.11
-20.87
84.55
104.84
118.18
42.02
132.6
93.94
169.58
114.2
109.89
210.18
227.64
191.65
176.46
225.86
194.59
258.24
251.85
313.4
297.99
263.15
308.82
284.63
313.72
305.3
329.77
352.41
372.15
422.06
425.06
365.83
410.49
454.31
419.85
485.44
440.75
496.84
477.04
481.17
443.7
435.61
430.4
531.16
514.15
476.59
495.47
450.51
463.49
548.1
541.21
506.24
477.18
484.34
512.01
512.19
459.9
532.49
520.38
442.35
521.76
511.03
504.3
447.86
490.27
417.53
481.14
453.78
466.7
432.52
458.13
442.53
435.42
360.02
437.56
335.46
393.94
359.49
318.09
327.39
306.16
355.39
331.54
272
279.36
312.29
223.03
226.2
207.69
192.97
238.73
204.26
133.03
160.62
137.53
136.96
142.3
90.15
97.18
31.56
20.34
2.18
51.51
20.47
-45.36
-15.07
-28.09
-86.55
-25.78
-53.79
-84.88
-122.74
-83.6
-139.58
-187.37
-139.54
-158.08
-231
-253
-245.52
-231.48
-220.47
-270.99
-326.81
-259.65
-280.68
-360.58
-280.22
-344.73
-378.99
-330.79
-416.16
-346.97
-349.38
-433.54
-418.34
-404.27
-426.93
-438.19
-416.86
-444.59
-501.28
-499.65
-429.12
-497.98
-485.85
-443.8
-455.22
-442.76
-497.61
-477.13
-538.75
-496.13
-507.48
-475.38
-477.95
-471.97
-461.29
-500.3
-450.82
-505.72
-470.25
-471.12
-509.28
-488.39
-445.81
1005.08
-425.77
-436.84
-473.14
-460.06
-425.15
-457.96
-476.31
-426.22
-367.32
-391.21
-369.9
-437.19
-397.43
-403.51
-396.99
-365
-300.16
-292.06
-342.43
-313.5
-242.45
-325.58
-248.62
-241.44
-236.79
-241.02
-213.45
-235.34
-224.49
-208.93
-154.94
-153.89
-79.53
-118.65
-149.84
-101.1
-59.05
-58.63
-73.79
-8.11
-1.46
49.88
-29.24
54.44
60.25
22.3
52.85
110.21
69.61
89.32
187.62
147.78
188.8
228.06
240.75
161
174.43
204.08
260.17
245.4
286.79
304.9
306.59
329.96
313.69
379.17
362.13
356.26
388.99
411.59
394.52
383.31
412.99
447.33
402.44
448.12
484.93
465.06
488.43
440.66
474.25
514.15
523.57
478.52
468.09
464.92
502.73
499.39
450.85
481.1
477.67
454.57
485.2
464.36
510.1
529.4
509.51
485.5
483.34
504.48
487.02
508.84
488.99
455.83
502.47
494.47
429.49
413.84
431.64
398.59
385.94
416.04
377.54
393.15
438.38
414.97
347.94
371.84
385.97
317.19
345.74
290.44
323.05
256.71
331.79
326.86
301.81
222.3
272.07
186.41
203.51
192.89
193.96
149.74
144.49
195.05
134.15
95.93
76.12
123.73
113.27
31.1
53.08
56.78
10.05
11.79
-66.85
-24.21
-3.78
-58.67
-112.7
-111.92
-80.71
-107.51
-96.81
-185.49
-160.75
-178.86
-212.24
-240.32
-195.11
-254.92
-242.13
-298.73
-295.83
-321.17
1247.07
-264.72
-371.55
-329.6
-309.26
-354.5
-413.61
-407.42
-383.26
-375.32
-362.14
-422.36
-420.89
-463.89
-445.83
-424.35
-460.44
-456.5
-454.53
-482.13
-457.69
-464.4
-501.14
-498.38
-442.99
-484.38
-539.67
-498.42
-537.31
-539.82
-483.88
-503.71
-482.58
-494.68
-495.73
-485.84
-492.93
-518.18
-531.4
-463.65
-469.39
-519.3
-510.15
-447.87
-422.85
-420.39
-485.59
-418.47
-400.83
-450.84
-406.56
-421.94
-394.98
-386.06
-372.96
-409.83
-365.23
-400.94
-343.47
-374.38
-356.22
-340.44
-340.33
-279.54
-236.18
-220.16
-240.96
-270.91
-254.67
-232.87
-195.3
-175.19
-147.82
-168.99
-173.5
-112.48
-76.79
-132.71
-54.17
-14.17
-37.47
-76.35
-20.6
18.79
52.37
-17.77
74.95
71.46
84.67
74.64
60.22
107.15
97.44
113.79
129.54
200.75
222.72
188.19
268.19
253.72
276.04
279.7
250.78
291.26
336.51
329.4
367.88
310
352.82
311.74
398
354.61
393.88
367.1
444.78
390.14
397.99
414.73
469.1
427.79
409.58
495.27
421.67
418.81
448.08
483.63
432.63
514.29
455.89
463.05
470.69
452.03
471.81
477.33
521.45
529.21
533.59
474.6
463.47
480.94
536.41
502.82
534.8
510.7
520.02
524.94
470.81
428.24
456.15
476.67
462.9
410.24
411.34
423.09
402.12
444
353.83
401.72
391.32
336.77
373.51
364.81
374.78
375.8
352.48
300.79
303.6
1820.43
229.17
249.42
211.9
184.79
197.25
235.41
222.69
218.21
201.76
198.54
184.51
111.99
70.51
84.55
80.39
63.07
44.6
8.52
55.68
45.3
-30.24
9.23
5.6
-21.51
-25.29
-85.3
-148.65
-111.88
-164.44
-132.24
-152.96
-133.58
-142.09
-195.1
-258.69
-278.23
-259.1
-264.17
-256.81
-235.08
-319.89
-315.19
-277.27
-306.81
-390.29
-322.41
-360.12
-406.36
-339.66
-413.98
-376.63
-414.78
-467.88
-401.89
-475.12
-394.25
-442.62
-422.59
-503.09
-456.85
-498.14
-525.19
-455.3
-519.03
-482.86
-465.91
-484.86
-513.57
-479.85
-511.3
-546.86
-456.22
-520.25
-492.65
-528.63
-509.77
-492.39
-523.4
-519.69
-520.9
-515.57
-484.98
-514.13
-442.88
-445.91
-411.83
-416
-482.76
-482.85
-385.55
-409.87
-428.44
-391.33
-348.62
-413.17
-417.6
-320.95
-375.59
-336.67
-343.96
-367.84
-344.3
-296.29
-319.95
-270.8
-252.36
-257.57
-256.83
-201.39
-242.25
-226.45
-199.58
-150.6
-167.34
-130.98
-157.18
-106.65
-70.24
-113.08
-50.48
-21.53
-25.5
-22.72
21.08
-0.09
-22.87
53.15
71.59
42.11
77.04
117.38
136.83
146.19
148.07
172.84
200.28
223.4
233.14
225.08
235.84
249.77
237.76
257.4
263.44
257.22
263.43
328.18
331.57
326.15
300.5
370.64
344.8
415.61
389.99
378.56
393.42
397.77
432.54
471.03
489.1
441.27
483.47
499.25
494.98
443.34
2008.45
494.41
461.99
448.68
516.72
465.35
490.8
545.67
500.9
501.06
452.72
514.95
533.21
505.49
484.59
528.91
445.25
467.07
533.55
493.74
455.01
486.6
461.42
448.06
479.83
483.21
413.38
480
412.98
441.36
433.39
387.58
350.74
350.2
334.62
386.28
366.83
396.74
333.62
314.99
266.06
262
274.69
319.88
254.23
216.54
195
179.8
207.7
204.19
167.76
154.76
132.55
127.44
172.5
114.87
107.33
37.79
61.02
100.43
61.66
38.99
-38.24
-26.87
1.6
-66.8
-25.77
-78.27
-42.21
-110.86
-147.81
-101.98
-119.17
-163.01
-139.11
-150.74
-210.13
-178.59
-176.3
-248.38
-201.91
-301.16
-271.24
-286.66
-336.96
-331.24
-306.84
-295.87
-327.58
-365.15
-338.13
-370.81
-402.55
-435.14
-371.68
-447.48
-389.21
-465.33
-392.09
-450.28
-487.75
-470.98
-456.71
-476.36
-477.13
-429.84
-433.76
-454.61
-445.24
-525.61
-516.64
-487.01
-486.89
-496.08
-453.24
-514.76
-535.34
-487.68
-500
-450.19
-516.57
-451.93
-529.4
-450.05
-454.35
-426.39
-433.13
-484.1
-486.99
-491.75
-473.18
-446.58
-388.01
-402.73
-453.63
-447.96
-404.05
-419.14
-418.08
-390.52
-382.54
-391.53
-302.04
-291.9
-305.54
-311.33
-293.44
-317.23
-288.16
-252.57
-269.85
-257.72
-222.37
-209.76
-224.02
-177.29
-125.38
-143
-125
-82.9
-77.68
-65.27
-78.98
-72.57
-10.75
-33.28
-20.48
1539.44
18.4
65.65
21.15
57.07
91.11
87.91
148.57
150.96
183.73
165.84
126.35
175.4
176.66
193.85
258.84
273.37
208.15
227.01
306.76
271.51
326.14
339.87
311.7
338.22
375.45
346.87
393
346.65
389.25
431.57
410.08
411.14
380.15
417.73
409.16
482.49
420.84
503.88
512.51
474.84
507.38
474.47
444.61
448.33
453.74
524.16
491.73
481.57
485.79
503.48
455.91
471.93
500.18
499.26
455.75
459.78
502.05
540.52
463.92
484.55
520.13
524.86
438.43
478.71
509.71
445.03
403.54
403.81
396.81
454.04
422.28
403.79
361.84
407.46
340.5
414.84
322.1
382.97
340.19
286.51
334.72
318.23
269.64
236.71
299.33
275.38
250.92
227.31
222.57
205.63
181.14
199.79
157.2
164.57
82.94
120.75
144.09
90.9
56.66
92.44
50.35
26.15
14.14
-50.78
-40.23
-56.78
-66.76
-30.5
-78.26
-137.17
-84.8
-141.93
-167.11
-105.37
-121.48
-169.8
-194.75
-191.77
-223
-262.45
-212.73
-302.01
-256.48
-241.81
-278.23
-336.23
-361.44
-365.51
-317.76
-339.83
-413.29
-350.9
-391.74
-354.13
-393.99
-391.09
-447.92
-416.75
-410.8
-414.29
-467.63
-506.5
-448.22
-503.07
-434.28
-428.51
-522.47
-517.58
-488.44
-505.12
-507.05
-487.51
-461.63
-508.45
-528.91
-459.52
-496.65
-495.43
-479.42
-457.41
-498.81
-508.15
-532.61
-474.42
-447.51
-429.46
1016.2
-436.57
-445.69
-448.03
-424.37
-414.07
-476.05
-448.18
-464.15
-409.93
-372.87
-348.18
-388.35
-393.58
-382.52
-352.18
-348.18
-367.37
-299.11
-275.37
-341.59
-276.65
-303.1
-303.96
-210
-204.94
-231.73
-203.65
-158.17
-205.18
-114.74
-194.76
-117.03
-141.12
-57.78
-58.28
-65.46
-54.34
-9.51
-34.18
-8.94
-15.52
28.29
38.03
59.18
58.46
35.49
127.49
153.32
86.46
114.23
107.43
146.25
142.95
198.76
170.16
243.25
217.67
274.59
294.81
318.28
246.6
318.54
289.19
285.43
379.52
368.94
310.45
343.7
404.51
359.23
347.02
372.27
446.29
407.54
467.98
480.06
444.03
450.91
416.62
414.64
418.22
422.61
464.17
455.9
440.41
510.13
506.13
498.75
485.02
459.02
541.88
481.14
494.57
518.42
456.59
545.15
449.3
514.1
471.6
522.63
442.16
463.69
431.88
456.83
461.88
448.84
433.83
479.67
397.7
481.72
462.43
378.06
434.74
430.57
433.2
346.12
372.83
386.7
377.58
339.45
308.05
321.55
299.27
261.71
326.67
305.46
213.55
241.33
234.79
263.42
166.13
191.65
135.22
156.68
138.76
184.52
97.18
86.03
123.24
28.65
83.71
39.94
28.44
20.22
12.55
-60.62
-20.65
-29.19
-76.53
-34.29
-43.44
-87.72
-154.36
-136.28
-183.88
-124.65
-180.17
-149.29
-187.03
-200.55
-230.81
-239.24
-303.17
-289.07
-304.5
1181
-260.46
-365.84
-281.93
-341.87
-365.11
-368.32
-329.14
-386.08
-437.3
-444.94
-373.99
-438.83
-437.05
-447.53
-395.87
-419.53
-439.57
-507.48
-424.46
-443.97
-513.09
-523.04
-516.19
-525.35
-498.25
-446.18
-449.79
-493.1
-453.33
-461.35
-494.3
-529.02
-548.65
-534.68
-501.93
-486.48
-527.57
-478.62
-524.92
-437.33
-500.36
-455.79
-486.88
-484.8
-491.41
-501.25
-396.79
-396.35
-404.62
-390.2
-454.18
-413.39
-425.62
-401.66
-395.62
-358.56
-402.46
-330.17
-360.54
-274.72
-346.48
-298.93
-333.55
-296.07
-306.24
-252.54
-223.52
-216.13
-208.93
-213.12
-224.49
-217.38
-178.53
-161.28
-148.7
-122.47
-61.72
-46.88
-62.19
-64.62
-8.3
-63.67
24.85
26.73
33.8
67.13
67.68
57.9
67.89
57.92
87.78
136.94
138.97
177.72
136.54
236.24
171.37
220.16
218.28
191.72
258
281.14
299.13
276.71
342.34
354.09
338.61
317.04
381.6
397.81
379.22
391.9
401.04
390.29
372.37
417.54
421.38
428.25
442.43
421.61
468.65
504
472.23
485.24
525.39
438.93
449.19
483.61
528.91
458.72
520.14
512.19
496.19
485
488.39
450.05
525.57
494.26
450.32
499.18
467.45
532.57
467.03
453.19
528.35
515.05
507.09
454.66
444.38
414.97
404.26
432.97
386.41
452.22
418.6
443.93
413.15
360.62
424.42
361.99
364.33
357.11
356.63
312.06
312.55
323.26
1756.44
315.83
251.59
252.93
233.72
176.55
192.86
225.91
175.15
173.34
161.72
170.05
92.45
134.36
108.97
45.12
70.79
35.88
-9.93
-20.1
48.49
-19.45
-72.59
10.06
-79.49
-35.31
-80.95
-145.45
-79.23
-89.68
-161.28
-134.46
-169.37
-144.74
-174.54
-219.68
-274.82
-255.41
-236.89
-298.35
-312.57
-261.74
-331.66
-288
-326.44
-336.31
-335.78
-381.4
-400.24
-359.94
-397.03
-356.91
-394.83
-380.97
-396.87
-384.94
-459.94
-409.64
-414.83
-421.17
-428.67
-430.39
-504.77
-498.64
-523.41
-499.72
-478.02
-513.23
-464.7
-468.73
-453.57
-466.39
-511.29
-481.44
-482.15
-517.35
-525.28
-521.67
-519.47
-518.23
-498.18
-531.19
-511.43
-513.74
-456.3
-460.77
-428.94
-452.78
-446.28
-457.55
-450.38
-425.91
-381.79
-371.43
-362.72
-371.97
-355
-351.63
-397.81
-398.26
-299.4
-327.75
-335.48
-322.56
-304.15
-320.07
-279.86
-222.14
-268.61
-217.72
-196.87
-174.61
-152.83
-165.87
-108.88
-129.97
-143.36
-97.47
-63.45
-114.29
-97.51
-59.02
-31.4
0.92
12.65
10.17
6.49
28.71
58.85
38.73
107.19
63.34
149.87
155.88
185.06
140.57
208.91
182.28
187.87
200.75
181.59
224.26
250.98
295.61
308.86
307
310.77
346.92
323.64
376.81
314.93
368.39
397.59
375.88
360.89
435.83
387.43
426.33
453.15
443.4
401.84
480.69
483.35
460.78
426.62
511.09
517.75
1964.08
443.54
461.49
470.02
497.46
467.82
478.71
475.09
450.95
497.1
500.03
478.7
483.33
460.67
457.97
451.01
526.62
534.57
442.63
490.68
453.75
444.52
422.91
421.38
481.48
484.04
407.94
405.72
421.92
426.41
411.71
403
434.82
391.42
345.22
371.21
351.54
367.15
360.67
365.32
324.23
281.16
248.99
254.51
293.27
253.3
212.15
227.8
247.56
172.44
135.32
197.26
161.17
134.06
71.77
62.13
114.79
116.64
32.82
5.16
53.33
36.34
1.06
-25.16
-24.85
-24.26
-49.84
-48.84
-59.14
-139.97
-156.05
-152.96
-131.02
-205.83
-198.2
-211.49
-212.25
-247.16
-241.4
-215.78
-301.4
-253.83
-313.02
-315.58
-328.24
-325.59
-328.7
-307.65
-309.52
-345.71
-374.57
-402.92
-425.89
-397.96
-380.91
-457.16
-384.76
-410.74
-399.21
-475.3
-428.18
-488.59
-483.61
-466.6
-459.26
-456.29
-472.31
-518.88
-500.02
-522.49
-535.2
-488.8
-452.3
-518.96
-476.65
-470.2
-538.57
-539.9
-468.99
-466.58
-541.41
-468.23
-514.92
-479.28
-452.78
-478.88
-508.27
-425.53
-450.73
-406.76
-419.8
-410.17
-409.61
-372.23
-438.09
-420.66
-428.18
-334.33
-344.06
-387.08
-400.83
-343.78
-367.15
-270.24
-349.48
-296.78
-271.9
-243.05
-302.68
-227.16
-201.87
-210.12
-172.74
-201.53
-191.13
-172.82
-169.31
-135.89
-72.22
-116.68
-136.7
-31.93
-84.45
-38.86
-9.97
-31.59
1543.89
24.54
-14.57
39.28
24.65
98.91
126.69
84.18
159.18
161.2
174.99
177.84
210.1
146.73
243.39
192.5
204.27
209.58
220.5
229.41
293.32
246.25
312.37
335.15
307.71
294.24
350.4
322.91
362.43
353.84
427.93
385.48
446.68
433.88
407.9
401.81
412.92
413.03
469.44
415.65
510.95
496.02
524.69
431.97
532.05
460.86
525.71
457.81
523.66
459.92
487.88
471.06
509.83
450
505.34
536.26
514.22
542.87
457.83
461.18
522.33
500.54
456.3
499.1
470.44
463.37
434.63
410.32
394.72
448.97
418.68
390.3
416.84
443.39
384.13
368.72
378.56
320.97
351.75
320.17
329.2
286.59
328.15
281.48
269.07
314.57
224.87
254.71
269.51
190
194.33
232.4
171.3
128.16
179.52
148.53
156.35
139.43
57.64
101.01
97.09
18.33
65.95
57.26
-23.98
-16.9
-33.41
-78.95
-54.89
-99.93
-46.66
-149.31
-136.36
-140.26
-107.94
-111.35
-189.51
-138.95
-169.62
-168.21
-213.45
-214.83
-217.54
-233.97
-237.69
-334.26
-258.92
-345.25
-358.25
-318.29
-330.78
-396.21
-323.37
-411.12
-373.23
-445.58
-420.6
-457.65
-475.64
-469.49
-472.22
-424.16
-434.58
-429.39
-448.25
-490.36
-430.94
-460.77
-459.11
-511.96
-481.8
-457.16
-459.35
-463.19
-489.87
-548.25
-477.71
-450.65
-450.75
-485.57
-481.71
-518.13
-473.33
-461.43
-523.11
-445.44
-494.38
1009.45
-481.56
-504.08
-495.65
-418.53
-411.36
-453.88
-473.63
-458.69
-460.97
-410.98
-430.88
-420.32
-410.73
-333.44
-362.5
-352.34
-304.96
-365.78
-270.45
-258.79
-253.98
-252.24
-245.13
-256.27
-280.88
-261.32
-213.89
-212.78
-150.95
-208.54
-133.9
-167.87
-161.49
-84.37
-109.29
-118.58
-112.17
-67.85
-78.94
-56.73
2.03
-1.76
53.25
32.84
9.31
119.83
55.89
148.14
149.84
133.16
103.55
195.33
147
178.58
194.51
251.66
276.46
205.13
298.96
251.53
294.43
338.26
320.31
277.98
354.96
299.03
327.7
367.73
349.29
372.35
343.83
363.13
424.12
406.83
393.58
470.02
483.36
418.67
455.83
443.52
464.47
461.17
503.05
449.73
474.74
493.47
446.98
509.95
450.89
449.22
497.56
476.73
508.96
538.07
492.1
456.32
489.2
494.57
540.04
489.58
478.43
531.59
455.38
495.98
476.02
446.82
412.12
412.14
464.46
411.79
430.3
422.1
409.29
378.16
447.38
345.77
400.7
416.3
394.01
345.65
363.76
328.55
348.48
258.48
291.91
257.62
300.69
251.92
207.94
203.98
251.65
216.96
175.93
188.26
188.67
143.61
88.61
152.77
114.21
102.68
54.15
74.33
71.03
-1.49
0.38
-24.36
-57.59
-57.17
-47.72
-102.7
-66.93
-68.36
-121.4
-167.56
-175.16
-134.57
-171.43
-163.32
-212.92
-179.88
-178.4
-271.92
-264.02
-314.09
-268.28
-283.42
1148.24
-312.05
-371.18
-337.98
-374.47
-402.91
-340.75
-419.93
-435.19
-398.48
-395.23
-373.99
-470.44
-391.8
-427.58
-456.87
-447.74
-444.37
-434.48
-489.38
-484.48
-444.87
-455.52
-441.45
-518.23
-444.83
-530.21
-536.47
-486.47
-464.69
-475.08
-516.74
-466.27
-473.69
-455.17
-539.11
-451.41
-487.78
-475.24
-519.4
-452.62
-500.12
-489.81
-476.41
-451.56
-412.53
-482.75
-454.66
-403.41
-462.29
-437.84
-439.39
-390.06
-397.69
-359.47
-354.73
-406.24
-322.64
-360.1
-350.71
-266.98
-326.24
-300.43
-303.73
-285.64
-244.62
-201.69
-247.15
-238.19
-235.72
-195.16
-173.63
-161.37
-133.89
-137.2
-148.15
-71.81
-106.67
-64.7
-5.54
6.74
19.45
-33.8
9.16
42.8
63.48
5.81
103.4
30.24
97.54
126.67
147.35
148.31
126.25
140.51
180.04
147.6
193.45
174.5
269.74
221.03
213.92
267.88
305.15
293.19
289
333.35
314.18
342.15
350.89
399.59
420.06
385.37
443.07
453.56
383.64
408.58
407.28
432.79
441.42
483.94
448.75
503.25
466.65
523.26
471.01
470.4
520.22
482.11
505.99
538.77
493.02
511
525.39
516.66
497.02
450.4
534.05
513.11
535.07
479.96
461.8
484.77
456.06
483.28
497.1
474.52
433.18
431.04
463.7
488.03
489.41
385.94
452.99
441.47
445.4
396.64
428.82
427.91
343.62
323.17
393.21
331.85
313.48
337.99
349.92
1834.86
301.42
314.8
222.34
285.25
244
181.84
165.65
168.33
177.45
198.26
133.86
141.29
76.28
103.36
134.74
117.7
55.55
30.16
16.04
49.86
28.74
16.06
-56.99
-18.7
-47.4
-125.57
-58.1
-152.4
-78.68
-128.23
-153.73
-213.56
-194.95
-166.3
-185.38
-214.41
-222.5
-239.23
-224.49
-231.2
-332.14
-256.8
-302.26
-322.55
-289.6
-377.89
-363.61
-414.82
-331.13
-373.7
-433.86
-446.02
-395.49
-449.08
-466.38
-426.03
-407.89
-465.62
-473.49
-480.57
-481.47
-472
-446.83
-438.15
-461.68
-482.27
-522.69
-446.71
-545.34
-491.97
-539.07
-512.82
-483.71
-465.88
-547.36
-530.53
-452.43
-541.43
-516.67
-456.23
-529.8
-510.76
-493.75
-442.11
-469.98
-473.14
-429.51
-439.43
-490.64
-476.41
-471.21
-371.12
-456.94
-429.32
-365.08
-343.39
-392.2
-365.95
-355.6
-386.03
-282.07
-304.1
-348.3
-256.01
-320.82
-286.47
-287.13
-196.53
-234.05
-238.37
-229.99
-141.54
-134.44
-132.55
-138.1
-150.49
-150.04
-146.82
-78.55
-118.05
-12.38
-42.45
-78.65
-28.87
-35.84
18.18
-4.65
10.32
12.22
51.13
74.23
82.06
120.97
94.48
167.59
175.84
146.78
145.59
211.54
191.02
236.17
213.11
265.37
252.63
242.53
300.86
346.7
325.07
330.87
299.35
385.96
318.4
339.3
377.67
351.59
428.12
378.04
457.77
458.92
464.98
450.4
429.87
495.17
488.71
458.87
472.07
1997.78
525.6
510.74
458.08
493.44
481.98
485.08
529.97
507.64
539.44
527.03
465.96
475.24
476.99
483.33
481.09
469.1
475.24
483.79
436.27
525.55
442.6
507
415.36
506.45
434.99
412.22
479
476.05
391.66
365.91
358.18
424.83
390.83
391.1
332.41
390.36
336.81
293.62
361.28
355.26
269.17
273.23
314.51
241.12
257.06
188.07
235.98
189.46
239.46
168.57
152.02
119.58
117.97
83.97
150.94
45.92
44.53
37.88
81.09
57.91
20.37
7.34
12.81
-55.82
-70.54
-18.08
-31.93
-117.52
-97.12
-159.94
-133.19
-195.25
-137.14
-187.51
-146.82
-189.95
-173.96
-224.43
-231.78
-265.3
-309.32
-266.03
-281.94
-269.38
-360.3
-368.23
-331.1
-330.51
-392.77
-359.37
-397.13
-347.63
-355.79
-364.49
-461.07
-391.07
-478.56
-394.03
-483.08
-430.56
-470.43
-468.85
-511.42
-486.35
-494.12
-503.78
-453.69
-499.75
-467.39
-451.67
-458.62
-536.05
-466.31
-507.44
-524.18
-461.24
-518.09
-522.04
-544.68
-536.67
-475.32
-498.89
-473
-518.63
-469.62
-485.28
-451.66
-455.21
-475.36
-459.17
-417
-437.76
-395.28
-375.77
-368.86
-416.93
-388.65
-345.57
-398.68
-374.78
-356.47
-351.64
-335.14
-316.03
-310.12
-309.17
-271.39
-311.92
-288.95
-242.68
-257.64
-205.89
-210.1
-145.22
-213.51
-130.07
-148.77
-156.88
-110.15
-104.49
-108.15
-45.62
-0.32
-79.37
-33.81
-6
1559.41
25.95
-3.4
53.59
55.45
104.24
82.01
152.3
145.11
174.94
124.85
138.89
186.75
201.25
247.98
212.2
252.86
257.14
296.41
234.32
309.67
332.44
318.19
317.1
301.76
376.77
331.27
389.38
343.77
392
358.89
399.46
412.28
453.48
407.85
447.13
460.84
411.14
455.89
477.35
426.8
445.01
513.04
503.61
484.25
503.81
475.03
467.35
541.38
538.75
548.21
487.25
488.31
530.29
495.95
543.76
504.01
502.41
531.15
533.68
497.18
435.32
501.59
492.59
505.36
441.89
447.63
448.26
413.86
412.19
413.99
431.05
407.44
370.79
421.31
361.43
359.55
320.5
372.82
368.97
337.24
328.67
263.01
274.23
315.98
215.21
211.78
192.31
248.12
174.77
157.89
139.88
185.22
136.34
107.5
103.09
100.63
48.71
124.92
20.49
14.09
-7.75
45.58
28.54
-16.5
-29.98
-39.05
-43.21
-90.65
-132.44
-119.36
-159.66
-125.93
-113.07
-196.84
-182.02
-197.4
-218.68
-213.93
-200.95
-211.91
-289.22
-306.2
-247.71
-283.1
-306.7
-325.2
-337.93
-296.74
-303.34
-346.9
-357.43
-378.02
-351.87
-393.39
-392.21
-373.9
-469.18
-430.36
-478.92
-467.62
-420.76
-476.28
-419.03
-425.96
-437.93
-442.44
-525.95
-463.33
-507.77
-523.66
-460.31
-521.79
-519.58
-517.49
-512.96
-467.66
-462.22
-465.23
-547.24
-515.85
-532.57
-521.46
-455.94
-490.7
-455.68
1055.06
-482.29
-461.81
-484.99
-432.82
-403.68
-393.67
-426.44
-438.47
-382.3
-448.57
-435.68
-355.23
-428.72
-332.36
-318.06
-310.03
-313.41
-337.62
-318.55
-281.05
-336.74
-258.43
-231.92
-232.77
-216.62
-245.05
-188.15
-189.3
-235.85
-159.01
-150.39
-96.07
-159.09
-162.81
-140.96
-73.81
-68.26
-64.82
0.94
3.09
-9.24
21.43
67.57
2.29
89.17
110.81
120.19
54.09
79.99
145.46
150.58
154.55
119.36
213.65
226.25
195.42
213.34
279.83
291.88
292.32
305.99
305.08
330.47
297.48
345.53
346.78
322.88
345.87
345.34
384.78
369.69
392.75
431.58
372.51
457.79
397.13
482.69
404.11
431.84
441.63
440.69
468.48
476.89
516.7
520.37
439.99
514.28
483.65
537.12
524.32
530.41
536.06
487.78
492.35
547.39
511.01
488.07
491.52
514.2
518.62
450.85