-199.19
-234.56
-185.63
-333.98
53.41
1092.45
73.69
-1448.38
-472.55
-141.85
-682.05
-147.38
-50.21
-162.59
43.25
-25.07
-50.59
-37.85
-118.82
-44.44
-126.43
372.71
1558.18
418.53
-1293.35
-257.09
90.51
-537.76
48.92
150.49
-10.7
243.91
208.3
206.99
253.08
203.38
281.74
237.2
665.35
1662.5
712.52
-839.71
-108.36
223.51
-317.54
62.84
212.48
120.42
310.03
321.61
339.77
394.36
445.94
596.75
553.09
865.92
1617.8
929.69
-144.73
434.2
615.95
258.63
592.88
554.46
373.16
505.8
536.37
530.02
483.22
421.74
420.41
255.84
489.21
1172.63
487.9
-621.96
-212.46
-99.56
-511.74
-230.81
-244.28
-461.36
-402.29
-459.08
-484.77
-510.41
-538.5
-510.22
44.35
1063.66
212.3
-1651.1
-1347.28
-831.35
-1348.9
-1107.07
-820.86
-930.55
-849.08
-864.36
-926.56
-881.51
-843.5
-765.19
-605.12
-666.19
-52.19
1278.99
94.73
-1772.47
-672.29
-248.48
-833.26
-49.22
182.29
54.07
353.98
337.75
304.12
310.94
179.93
111.03
90.86
44.77
-126.73
395.34
1523.54
304.48
-1351.23
-238.34
82.94
-505.41
750.43
2169.33
2068.56
1191.66
948.81
937.95
524.22
364.97
237.5
-288.22
-1084.33
-1502.72
-1318.77
-319.7
1211.94
-188.11
-2422.34
-1020.36
-292.97
-983.64
-203.39
98.02
56.14
462.05
431.48
464.72
586.8
518.7
548.81
532.5
478.67
547.81
603.55
627.36
1124.08
1489.2
363.75
-426.69
352.83
421.66
117.92
543.09
613.14
574.48
715.7
711.55
789.28
844.28
791.73
750.17
724.19
782.22
756.67
897.38
1504.63
1083.7
-156.7
-89.08
252.57
-74.89
1.13
137.97
-27.62
-84.31
-129.63
-151.76
-174.88
-277.7
-307.41
-284.86
-241.3
-383.17
-133.12
755.04
47.95
-1438.81
-973.09
-654.05
-1146.13
-831.94
-687.92
-833.69
-778.67
-773.47
-711.11
-696.75
-733.97
-645.77
-510.83
-562.12
-117.09
932.86
104.39
-1476
-774.86
-355.22
-831.28
-309.09
-61.06
-145.94
26.39
24.19
118.28
132.75
-135.12
-202.11
-167.95
-404.08
-76.25
912.94
27.13
-1610.48
-939.39
-520.89
-1057.97
-623.73
-385.56
-502.41
-355.47
-344.58
-348.94
-294.23
-313.39
-329.22
-292.56
-217.16
-357.79
208.71
1334.38
-185.3
-1999.41
-781.76
-516.36
-1120.9
-352.32
-231.28
-303.88
36.08
-36.41
44.75
207.35
150.24
168.62
254.05
323.95
494.84
1186.17
1549.97
145.91
-703.47
237.39
213.08
-87.16
477.33
533.11
455.5
559.31
467.33
498.02
563.83
458.55
458.95
602.06
565.86
1008.47
1973.34
1033.75
-489.5
238.34
592.52
50.64
396.22
548.03
453.61
559.7
426.44
341.17
364.8
275
220.73
256.09
261.37
783.66
1747.06
815.44
-981.36
-554.84
-5.05
-450.38
-188.02
61.75
-41.47
74.27
97.03
76.06
79.67
27.19
69.66
134.54
-44.89
336.84
1369.16
364.63
-1199.67
-352.17
-25.96
-537.14
-60.08
-30.74
-220.18
21.34
38.54
76.38
177.97
234.77
369.36
386.42
774.41
1552.34
1026.36
-179.59
37.61
384.17
83.2
196.61
282.52
138.36
171.34
202.09
141.14
56.24
-6.07
0.53
-188.73
41.94
802.73
35.64
-1105.47
-449.34
-195.56
-578.47
-255.27
-259.53
-441.53
-417.56
-582.56
-707.31
-790.5
-850.38
-986.59
-533.87
604.38
-298.47
-1984.88
-1230.66
-828.16
-1383.97
-897.94
-743.03
-940.59
-835.06
-913.25
-930.38
-786.88
-649.81
-689.44
-153.66
979.12
-141.34
-1921.06
-989.5
-540.62
-1068.39
-466.03
-266.75
-393.06
-178.48
-195.61
-195.03
-50.09
97.12
72.52
496.83
1487.55
447.64
-1198.16
-350.13
-4.14
-533.69
4.6
135.22
32.29
273.03
183.3
123.66
226.31
301.63
354.09
921.09
1929.3
895.01
-881.06
-250.54
222.48
-250.06
137.97
358.84
292.81
445.09
385.22
342.73
344.59
326.95
439.44
294.52
685.14
1718.72
636.7
-917.3
0.14
253.5
-280.83
263.11
326.34
236.94
478.08
432.86
463.72
546.22
584.8
727.05
651.89
1015.75
1834.36
904.09
-294.17
474.14
677.39
303.88
739.97
632.86
392.62
527.19
324.12
146.95
110.78
95.97
193.62
692.57
1556.4
1035.95
-437.09
-317.27
179.23
-172.25
-115.25
21.76
-119.59
-130.69
-205.25
-326.02
-377.06
-419.4
-407.92
-380.66
93.58
665.81
-497.7
-1649.66
-918.58
-868.73
-1233.78
-733.16
-693.53
-788.97
-580.61
-589.82
-605.98
-578.96
-484.09
-345.95
261.53
1318.64
379.95
-1432
-944.56
-515.27
-1060.73
-732.23
-535.98
-661.86
-507.94
-538.1
-509.61
-425.84
-490.62
-367.88
-212.23
425.62
1508.9
424.28
-1435.63
-749.5
-263.37
-739.5
-229.92
-17.58
-164.48
34.99
16.93
-0.81
146.79
172.27
215.15
316.34
177.41
562.25
1617.97
642.23
-967.48
-86.18
263.03
-309.02
216.17
385.56
316.77
547.31
442.16
430.48
511.73
369.15
354.51
462.67
518.02
1041.98
1921.39
1226.75
-297.55
-37.13
450.15
96.45
269.61
474.58
385.89
457.88
403.22
302.59
298.16
200.89
93.58
49.23
53.95
-131.46
192.96
1172.39
208.33
-1343.9
-559.47
-313.01
-926.5
-491.33
-406.06
-520.66
-329.51
-351.51
-290.38
-217.96
-264.53
-174.06
45.57
6.27
403.95
1477.63
762.09
-664.65
83.71
549.89
183.93
615
610.05
495.06
780.93
715.91
661.17
641.05
446.16
418.16
348.69
430.8
827.59
-44.13
-1436.61
-1176.63
-769.58
-998.48
-707.69
-484.44
-589.59
-518.91
-462.47
-428.31
-399.78
-428.28
-389.47
-482.66
-150.03
696.66
-139.34
-1474.7
-795.17
-523.22
-908.83
-452.08
-411.69
-569.03
-441.81
-538.2
-618.45
-610.53
-630.89
-710.2
-129.34
970.39
-235.25
-2081.98
-1208.53
-789.81
-1389.75
-822.24
-536.93
-609.93
-293.66
-230.43
-264.75
-172
-106.41
-4.48
608.03
1620.58
838.5
-954.59
-603.97
102.66
-220.37
84.1
447
409.52
544.75
544.58
482.82
489.17
496.59
601.81
539.42
1007.37
1887.34
836.77
-358.75
637.3
806.87
321.5
862.59
905.41
759.86
835.58
621.34
494.27
415.03
290.28
249.2
117.23
448.7
914.38
-185.08
-1070.91
-266.81
-194.25
-478.19
-8.47
-48.36
-186.95
-15.08
-28.19
89.72
242.34
337.69
545.52
869.33
1496.73
1568.34
533.86
160.59
680.76
624.68
510.27
645.7
570.42
506.2
446.87
326.14
195.23
117.17
138.76
104.36
353.04
1003.8
387.14
-1295.86
-1584.27
-1212.98
-1485.7
-1442.08
-1134.63
-1113.27
-1048.12
-904.54
-886.35
-902.45
-804.44
-710.76
-539.16
124.54
325.13
-838.53
-1387.69
-676.6
-600.02
-607.25
-142.97
-77.37
35.8
229.05
187.01
163.14
165.13
232.47
218.4
586.45
1464.19
604.17
-982.22
-414.29
14.17
-404.97
-19.69
137.58
37.29
215.38
207.71
193.31
234.06
127.14
47.16
1.66
-111.73
432.35
1424.87
359.26
-1415.46
-830.76
-352.09
-766.24
-336.84
-84.08
-135.79
58.05
44.95
2.82
113.73
168.48
192.59
228.62
271.33
229.3
820.69
1636.88
311.13
-961.77
103.47
248.28
323.19
2046.49
1946.21
620.34
527.88
23.09
-1293.44
-1961.04
-1644.8
-1082.75
-930.88
-784.3
-626.75
77.48
1355.1
70.25
-1902.14
-813.58
-313.31
-901.8
-250.61
-62.31
-161.77
172.24
128.59
81.18
243.61
282.58
312.38
374.42
485.3
630.8
542.13
886.06
1873.19
1186.74
-252.23
333.13
687.48
243.45
612.66
664.75
496.95
699
683.55
681.71
775.23
725.49
787.74
891.82
875.87
824.43
1102.44
1465.75
742.78
-138.24
81.2
133.46
-135.87
-60.76
-125.54
-220.02
-271.06
-399.98
-404.46
-427.86
-512.55
-481.55
-354.34
-454.83
-170.11
659.83
-166.08
-1583.78
-1048.7
-787.58
-1183.64
-752.73
-664.25
-789.75
-670.12
-747.63
-760.91
-762
-826.56
-713.41
-603.41
-24.12
1012.72
74.84
-1708.59
-1229.53
-727.75
-1143
-780.16
-545.45
-621.09
-413.41
-389.87
-402.8
-329.23
-357.59
-305.94
-167.58
-267.97
192.7
1301.06
224.91
-1403.06
-453.64
-155.37
-732.4
-138.56
-50.85
-219.02
39.63
-99.38
-235.21
-231.82
-323.1
-249.95
-141.28
274.18
1215.62
847.52
-798.16
-794.27
-12.44
-234.62
-73.71
386.95
380.67
475.78
563.04
503.79
579.1
608.13
564.47
574.78
522.3
276.47
777.61
1798.03
507.08
-1063.83
-21.89
208.87
-346.83
240.41
274.91
173.34
395.83
240.62
243.94
276.05
141.61
212.89
295.17
295.98
804.58
1134.58
-14.38
-763.63
16.02
167.67
-30.16
316.53
268.22
183.41
306.08
262.98
252.3
287.91
376.41
522.25
475.77
837.09
1730.59
1018.86
-267.05
324.73
663.64
371.97
802.58
887.31
766.38
942
932.71
931.52
874.25
690.02
644.09
449.88
506.04
1235.83
1142.31
45.84
-102.45
185.62
-129.36
-199.07
-140.58
-319.1
-409.8
-510.04
-676.31
-785.53
-888.67
-944.08
-1076.83
-650.91
326.64
-666.98
-2214.67
-1431.5
-1057.72
-1520.06
-1058.75
-970.22
-1057.5
-858.72
-956.66
-933.38
-878.72
-896.06
-808.72
-360.81
521.66
74.34
-1455.53
-1350.13
-663.63
-862.16
-641.38
-252.14
-248.34
-147.7
-50.14
-77.12
-121.3
-101.06
-0.64
-18.12
403.98
1306.86
508.87
-762.61
-86.61
82.19
-437.25
-125.12
-242.3
-535.86
-457.04
-611.42
-720.01
-719.34
-691.98
-570.46
323.63
1727.38
421.53
-1760.17
-842.06
-178.25
-707.63
-118.31
92.2
-114.83
75.89
-44.55
-132.45
-68.84
-153.14
-88
88.7
-21.22
698.94
2055.8
578
-1222
142.25
408.66
-273.22
497.95
576.5
482.44
798.59
631.28
678.25
835.66
771.78
830.66
919.41
854.12
1404.81
2383.22
1219.13
-699.47
-196.66
311.53
-173.06
100.84
221.53
66.53
236.19
267.47
319.75
419.59
356.78
281.94
289.59
361.16
272.41
686.62
1821.37
1169.78
-228.22
551.81
1003
666.56
1137.06
1169.69
1192.23
1629.34
1591.17
1471.73
1304.63
873.09
719.17
696.96
340.73
233.25
812.16
596.63
-426.7
-347.69
-55.95
-359.2
-307.23
-247.3
-357.36
-376.35
-474.75
-455.25
-468.08
-593.63
-530.92
-725.08
-608.09
257.03
-405.56
-1879.41
-1462.22
-1082.5
-1358.03
-860
-757.59
-1006.12
-891.84
-901.66
-918.22
-851.16
-852.06
-789.16
-788.69
-316
526.69
-454.09
-1757.31
-1029.06
-831.44
-1230.03
-763.31
-776.41
-988.06
-847.31
-874.94
-779.25
-658.66
-653.41
-578.34
-702.31
-218.78
788.5
-391.97
-1824.16
-737.38
-494.44
-936.78
-246.91
-225.17
-400.95
-174.91
-291.02
-344.27
-331.53
-473.59
-417.91
-327.02
445.86
1741.61
506.04
-1615.26
-832.98
-107.95
-551.79
-13.66
290.32
196.12
435.08
415.01
365.05
476.3
451.66
444.95
569.33
483.52
982.77
2100.72
963.98
-870.89
-46.06
407.22
-121.56
394.47
585
527.33
742.16
695.22
733.47
847.28
854.19
968.91
1093.34
1503.75
2383.97
2068.56
710.56
643.28
1069.59
862.69
958.16
1058.72
855.22
829.28
709.05
491.89
441.53
369.59
290.55
289.05
519.39
1094.31
730.44
-515.27
-509.13
-95.29
-430.2
-362.77
-132.63
-264.25
-269.98
-261.67
-424.61
-503.45
-488.24
-491.26
-361.42
210.95
352.63
-791.09
-1414.46
-869.17
-805.39
-880.3
-595.74
-634.45
-746.26
-817.49
-1003.87
-1136.34
-1174.61
-1106.91
-1042.05
-464.25
108.42
-1124.29
-2111.01
-1175.52
-1060.72
-1311.66
-676.54
-608.49
-598.85
-289.01
-295.34
-243.87
-41.71
65.15
-20.55
596.89
1658.79
283.84
-1335.57
-156.8
104.3
-421.59
293.7
362.8
272.89
522.48
357.05
324
448.64
426.37
276.78
768.83
1864.59
762.52
-865.75
158.3
489.89
-74.58
488.66
474.69
283.45
553.14
389.91
264.47
352.03
386.94
509.72
1164.34
2181.88
1337.81
-223.16
422.53
994.97
673.75
1050.41
1152.3
955.3
1090.41
1099.78
1143.05
1210.02
1111.72
1093.33
1035.59
1075.81
1502.34
1326.61
270.12
0.17
344.81
113.23
-105.05
-189.89
-506.26
-744.08
-902.45
-1060.26
-1082.17
-1072.49
-982.56
-958.98
-435.48
808.16
208.78
-1235.39
-589.77
-339.2
-856.67
-333.33
-258.66
-535.98
-465
-631.03
-730.81
-838.22
-1033.84
-935.37
-155.44
952.37
103.69
-1757.56
-1406.53
-826.03
-1199.69
-810.31
-567.03
-683.47
-526.28
-563.25
-646.91
-575.34
-529.75
-517.94
-449.53
137.12
589.37
-659.31
-1597.22
-831.44
-802.09
-1069.55
-679.28
-838.95
-979.83
-778.69
-848.86
-796.17
-632.47
-563.47
-438.16
-529.45
168.07
1539.05
147.69
-1649.75
-281.95
60.44
-591.17
172.9
271.42
118.67
446.22
427.06
479.24
630.39
569.04
607.98
639.06
837.16
1612.48
1469.41
-18.66
-94.84
1218.72
1727.97
2041
2128.09
1661.2
1550.84
1172.34
388.5
-165.53
-867.73
-1512.64
-1554.17
-1376.19
-1303.7
-649.77
159.23
-720.91
-1596.95
-785.72
-695.81
-1007.67
-577.5
-602.06
-629.56
-404.16
-290.75
133.22
598.81
959.78
1351.78
1606.56
1809.5
2015.5
2497.06
2700.47
1668.84
903.41
1296.12
1310.34
1070.22
1223.47
1183.28
1096.13
1112.44
1100.5
1094.31
969.83
877.58
875.03
713.97
826.27
1286.66
559.55
-566.17
-281.53
-177.84
-554.74
-299.18
-260
-461.91
-458.45
-569.03
-631.16
-586.97
-512.5
-438.36
-264.1
358.54
429.95
-848.27
-1485.06
-934.41
-1011.05
-1162.11
-854.84
-873.09
-887.44
-855.72
-952.06
-963.48
-938.58
-854.31
-761.09
-324.67
549.98
62
-1544.8
-1495.52
-727.98
-860.5
-644.22
-277.86
-352
-251.02
-188.8
-265.61
-223.33
-164.44
-89.31
-151.81
295.98
1268.88
118.34
-1487.03
-474.39
-126.59
-639.52
60.38
245.78
46.02
183.5
86.03
-12.16
-34.23
-48.13
51.03
516.53
1492.66
1401.16
97.27
64.95
694.69
452.6
445.8
720.35
660.77
583.39
355.86
4.89
-230.94
-411.67
-493.98
-735.42
-242.86
949.31
-459.63
-2379.66
-1200.44
-758.49
-1330.16
-709.95
-684.01
-790.88
-444.98
-404.09
-247.96
10.13
172.58
260.85
820.55
1833.41
1018.23
-450.18
235.67
654.67
319.09
850.4
997.65
922.23
1224.16
1220.63
1101.88
1065.2
924.28
619.7
591.23
1174.93
777.61
-342.19
-111.37
165.9
-82.16
239.01
357.46
200.95
212.03
86.02
28.32
29.95
-108.72
66.8
716.7
536.89
-879.12
-1312.83
-745.28
-902.72
-970.63
-669.39
-784.17
-875.05
-841.16
-965.87
-943.88
-820.45
-996.09
-541.8
565.25
-494.95
-2083.08
-1199.64
-952.14
-1448.72
-803.77
-738.98
-919.95
-693.19
-850.27
-902.84
-697.11
-690.57
101.77
1405.09
81.16
-1813.82
-804.37
-391.23
-929.9
-269.81
-149.26
-310.4
3.95
-34.39
-59.24
106.92
95.38
896.49
2216.41
1084.27
-825.94
-4.28
653.59
117.91
526.23
767.28
629.05
829.53
876.2
1022.7
1442.03
1501.78
1091.47
1245.22
1925.28
1027.78
-367.13
145.5
480.13
70.12
371.81
380.34
-113.06
-499.31
-714.19
-578.06
-450.91
-494.84
-286.16
84.25
749.62
1357.72
535.72
-205.34
589.97
776.87
508.78
941.44
971.06
909.03
1212.13
1417.19
1728.27
1935.38
1847.61
1710.08
1562.83
1445.39
1328.75
1199.73
1095.15
983.85
865.79
686.67
398.99
67.75
-222.03
-411.19
-548.02
-696.93
-816.59
-827.23
-942.88
-779.78
-55
-667.89
-2037.52
-1742.52
-1453.22
-1823.75
-1563.38
-1444.44
-1479.09
-1284.66
-1332.84
-1385.03
-1311.38
-1290.75
-1303
-599.91
625.75
-528.38
-2498.38
-1766.09
-1377.28
-1973.69
-1391.13
-1172.91
-1355.59
-1155.22
-1148.41
-1092.25
-916.22
-798.69
-577.37
-460.87
249.2
1197.97
-218.18
-1538.45
-262.07
-44.63
-457.27
269.67
250.46
106.71
393.1
318.09
391.8
625.12
844.14
1086.24
1690.08
2927.22
3097.39
2240.67
2193.2
1957.53
1327.81
1356.66
1240.61
865.72
681.61
-178.69
-1776.88
-2241.28
-1613.23
-1558.3
-1372.17
-854.7
40.55
1505.59
270.03
-1748.86
-517.03
17.61
-598.61
89.2
277.45
206.98
529.2
529.5
648.22
843.28
878.88
1085.03
1246.31
1606.31
2436.72
2230.44
967.37
774.83
1140.92
909.39
937.66
1094.81
962.3
991.94
1084.41
1007.94
899.03
719.36
517.88
439.39
519.1
949.49
867.14
-247.44
-718.56
-329.34
-397.01
-482.16
-303.89
-353.8
-383.3
-367.23
-397.26
-459.22
-646.7
-684.5
-640.66
-404.23
245.47
-293.5
-1614.09
-1376.5
-1031.03
-1388.66
-1082.94
-816.31
-931.69
-876.31
-820.44
-812.84
-775.91
-697.66
-598.44
-86.5
874.09
257.25
-1487.84
-1375.06
-857.31
-1309.28
-1142.88
-911.69
-1064.5
-1001.78
-1028.38
-1126.81
-1152.94
-1103.09
-998.25
-992
-364.25
347.12
-983.16
-2043.45
-955.44
-820.61
-1049.57
-322.8
-243.3
-225.91
47.81
-24.68
49.97
167.92
187.05
316.19
1040.2
2231.63
1302.91
-710.09
-258.87
365.22
-164.94
139.52
423.88
284.36
449.3
432.58
320.92
359.67
310.94
396.19
630.84
508.41
990.47
2159.06
892.22
-866.75
325.56
829.12
855.41
2473.16
2293.06
1111.44
1182.91
866.78
375.34
417.72
307.5
357.69
402.72
811.88
1800.28
633.66
-1217.56
-499.84
-414.34
-1716.44
-1567.13
-1104.66
-1283.47
-1125.88
-863.25
-627.59
-206.22
60.59
304.31
538.97
1158.13
2141.34
1126.91
-249.56
718.63
1010.31
632.34
1236.38
1217.72
1047.41
1305.41
1336.22
1528.84
1827.13
1957.89
2029.94
1881.11
1734.41
1677.89
1474.14
1328.81
1146.38
820.69
651.63
442.61
100.25
-141.21
-421.76
-694.5
-847.65
-969.88
-1197.45
-841.7
119.84
-813.09
-2388.16
-1703.22
-1325.63
-1765.13
-1292.19
-1193.63
-1369.91
-1223.03
-1308.91
-1339.31
-1283.81
-1256.56
-1292.56
-731.53
412.34
-817.88
-2685.38
-1706.91
-1309.09
-1847.22
-1139.53
-931.22
-1041.53
-727.34
-732.66
-679.12
-384.69
-280.09
-58.03
630.37
636.12
-681.63
-1081.05
-302.02
-366.25
-332.05
257.98
323.94
350.45
445.75
288.97
276.45
366.27
246.39
705.88
1665
639.71
-952.37
-216.53
143.55
-376.77
42.23
147.29
-40.48
90.82
-13.66
-132.16
-29.84
-15.18
165.96
813.57
728.44
-488.53
-687.97
22.54
-131.13
-165.57
227
186.51
194.42
341.81
317.7
339.59
434.11
384.32
893.48
1905.21
999.39
-505.45
239.2
688.87
364.63
900.54
1052.75
1018.68
1340.12
1479.38
1736.6
2010.36
1827.95
1577.32
1555.2
1176.51
480.49
331.81
455.48
353.78
364.52
370.34
256.56
171.52
73.73
26.73
130.12
187.22
240.37
584.61
399.23
-547.13
-929.3
-827.13
-1047.41
-1115.09
-949.56
-975.31
-1059.47
-1140.63
-1182.25
-1149.63
-1122.13
-1216.22
-861.5
-18.94
-883.03
-2216.25
-1507.16
-1269.75
-1647.53
-1136.16
-1029.72
-1077.38
-959.97
-1082.69
-1029.41
-918.72
-990.56
-332.66
784
-432.16
-2339.81
-1669.97
-1252.25
-1771.13
-1278.58
-1053.8
-1167.34
-841
-642.81
-510.2
-318.77
-221.77
-302.7
391.83
1714.75
246.36
-1620.95
-231.98
119.9
-515.43
293.3
308.08
-31.12
30.37
-254.33
-228.25
-4.75
116.77
339.66
1175.16
2423.84
1489.22
-433.47
141.44
854.91
453.09
897.84
1302.16
1245.72
1364.09
1337.63
1300.59
1317.13
1240.81
1192.69
1220.69
1068.38
1405.31
2307.94
1255.88
-245.63
618.19
824
221.87
717.5
738.63
521.56
634.06
483
443.28
482.53
336.72
296.97
381.5
260.72
737.81
1833.69
1007.19
-333.34
555.44
913.31
543.37
1085.06
1083.59
926.97
1182.72
1211.16
1306.03
1381.06
1162.05
1038.69
992.52
1008.84
1241.47
863.43
-73.77
-378.47
-306.42
-442.8
-416.57
-315.32
-382.04
-507.76
-623.78
-677.98
-784.73
-920.21
-980.55
-1000.89
-1012.97
-450.69
180.77
-1026.08
-2197
-1498.41
-1423.81
-1759.25
-1318.97
-1323.22
-1470.53
-1359.88
-1423.22
-1422.97
-1389.34
-1428.72
-1354.22
-1420.5
-749.66
657.72
-563.37
-2475.78
-1352.56
-902.41
-1515.72
-827.25
-609.75
-701.47
-400.78
-480.53
-494.44
-364.05
-403.62
-254.72
-73.2
167.67
950.16
1015
-454.77
-903.48
-68.16
-180.56
-197.23
302.28
262.67
250.65
351.44
318.11
377.96
378.7
360.18
500.03
558.68
1174.12
2269.95
1358.66
-287.02
388.8
958.87
604.33
1069.34
1293.66
1202.42
1255.66
1000.59
795.98
708.97
491.66
334.9
260.13
75.12
-8.2
348.82
164.12
-1214.7
-1703.46
-971.17
-969.6
-1013.95
-528.08
-478.3
-475.91
-296.02
-270.59
-134.97
-8.08
16.67
195.7
386.46
979.14
1940.5
1255.24
-194.86
208.54
690.2
407.32
704.78
853.18
768
962.18
1040.6
1125.13
1182.86
1023.51
994.52
897.71
842.41
1297.88
1073.93
-92.96
-369.51
-132.61
-350.09
-220.75
28.55
-33.39
-67.89
-91.44
-167.48
-268.5
-374.94
-404.87
-489.73
-215.69
359.81
-522.03
-1668.63
-1142.03
-1058.94
-1478.47
-1095.16
-1078.16
-1246.03
-1067.72
-1085.09
-1136.72
-1097.13
-1026.88
-990.06
-678.28
67
-376.56
-1880.53
-1896.41
-1214.78
-1396.53
-1224.22
-886.91
-1045.89
-998.72
-904.05
-911.61
-774.72
-600.41
-423.52
72.55
929.45
679.09
-778.73
-920.27
-133.07
-227.39
-138.29
248.21
197.26
236.14
320.39
265.85
315.93
479.6
522.15
1191.55
2297.06
1055.52
-737.27
179.55
637.41
109.23
661.47
807.86
651.97
851.14
765.22
704.97
817.41
873.47
755.91
1064.38
1892.06
1044.94
-344.09
332.84
589.03
98
507.41
574.56
428.81
542.28
389.03
266.44
345.5
374.09
240.66
650.84
1437.38
386.62
-816.25
100.87
261.09
-147.62
387.95
336.94
163.67
447.83
535.34
716.36
984.77
1071.97
1330.61
1784.53
1618.77
819.11
600.79
735.96
521.63
478.26
484.66
251.89
150.85
198.13
250.89
408.5
534.87
655.02
791.99
413.87
-257.1
-492.26
-615.41
-905.59
-972.72
-939.73
-1049.78
-1168.58
-1205.91
-1247.53
-1289.81
-1270
-1297.5
-719.19
40.91
-1148.38
-2339.22
-1428.84
-1237.53
-1562.31
-972.47
-871.16
-887.97
-678.88
-770.84
-737.81
-599.97
-703.59
-299.81
711.06
-49.91
-1546.94
-933.75
-593.53
-1047.88
-645.47
-659.03
-939.66
-866.41
-1035.72
-1116.45
-934.95
-916.05
6.06
1457.52
-126.11
-2399.23
-1355.69
-805.25
-1382.2
-637.88
-341.22
-407.45
-55.42
-103.5
-154.87
99.59
245.17
102.36
798.18
2089.35
683.33
-1098.08
160.61
436.17
-181
611.59
728.59
594.94
922.19
975.91
1084.25
1153.63
1157.44
1193.75
1549.34
2416.75
1684.53
35.56
485.22
983.81
488.87
712.25
822.97
607.53
664.31
582.38
540.59
637.5
593.94
633.84
703.31
976.31
1655.78
1348.38
35.16
-126.5
297.22
56.5
147.53
415.5
304.66
303.22
393.59
437.78
677.88
978.5
1028.06
991.56
842.37
849.47
1418.16
1088.7
-63.2
93.69
438.05
125.13
360.8
545.78
399.69
435.6
420.56
396.79
499.22
536.4
519.04
486.18
614.64
555.04
-310.53
-825.81
-596.36
-755.34
-934.11
-822.91
-910.78
-1003.69
-969.22
-964.03
-1013.59
-1080.81
-1055.59
-1022.44
-771.53
-82.88
-290.91
-1637.84
-1864.31
-1191.81
-1314.03
-1330.63
-974.03
-1019.84
-1009.41
-890.28
-901.31
-904.59
-904
-846.59
-970.75
-563.19
564.5
-349.69
-2019.37
-1303.28
-1013.41
-1484.34
-986.72
-1086.38
-1361.94
-1148.72
-1161.06
-1101.19
-925.25
-790.03
-499.14
-366.94
410.52
1611.52
132.58
-1492.27
-225.49
-56.74
-601.39
109.37
19.39
-139.41
139.63
16.32
102.32
247.39
285.3
492.09
402.64
857.89
2059.25
945.37
-709.05
351.47
622.47
12.48
625.5
649.55
447.47
686.94
559.72
480.78
502.03
422.06
542.34
714.53
703.5
1328.75
2227.84
895.28
-504.38
566.69
753.69
228.16
794.69
808
604.81
734.06
572.94
524.22
524.12
410.16
495.38
570.41
1099.41
2052
1153.31
-494.66
-4.19
445.56
12.25
329.87
501.78
402.16
621.63
758.09
902.72
1104.09
1153.69
1267.63
1385.36
1544.27
1828.94
1499.09
807.55
728.03
691.08
361.63
303.94
277.13
191.66
203.44
153.62
89.39
13.31
-50.33
-71.25
-193.96
-120.75
339.41
-8.33
-977.5
-899.5
-679.16
-978.8
-875.69
-878.19
-1135.88
-1175.97
-1275.56
-1357.47
-1335.97
-1335.56
-1352.06
-812.66
194.34
-761.59
-2546.47
-1996.78
-1475.97
-1901.31
-1540.19
-1401.44
-1545.16
-1387.19
-1394.34
-1415.72
-1349.31
-1316.81
-1307.13
-444.25
894.56
-671.69
-2827.47
-1653.5
-1201.66
-1881.59
-1182.75
-1018.88
-1066.2
-638.2
-687.66
-652.23
-408.82
-251.5
-55.24
932.59
2342.18
875.93
-1218.17
-21.72
536.66
-78.35
607.3
767.88
557.2
849.38
827.27
765.8
814.27
812.31
845.37
737.53
1361.03
2263.38
768.28
-684.59
477.44
707.19
335.69
1699.72
3099.94
3172.75
2393.47
1917.88
1603.34
1077.72
879.59
664.16
869.16
1560.44
182.47
-1870.09
-1611.97
-1345.72
-1618.16
-1233.66
-1200.91
-1215.28
-979.37
-774.53
-229.59
255.72
433.19
682.53
903.97
1115.19
1722.47
1980.19
1158.78
869.44
1442.25
1368.34
1264.22
1513.02
1356.41
1270.92
1445.23
1552.11
1704.75
1694.67
1514.23
1396.98
1261.83
1130.19
1020.07
895.15
786.02
679.96
573.47
476.14
380.6
288.36
201.95
-18.22
-393.2
-627.61
-790.97
-1058.97
-904.75
-345.41
-839.63
-2083.72
-2074.53
-1710.47
-2012.44
-1878.5
-1645.06
-1729.81
-1641.63
-1606.31
-1632.69
-1514.5
-1408.63
-1364.56
-1282.06
-648.5
-117.25
-1336.94
-2365.56
-1571.25
-1343.94
-1525.81
-1032.81
-979
-1001.56
-770.06
-812.25
-841.81
-771.31
-754.19
-526.13
105.94
-11.53
-1261.22
-1505.53
-837.06
-916.16
-911.69
-549
-559.81
-556.31
-452.75
-429.41
-397.22
-369.37
-287.34
-424.67
146.61
1406.77
66.73
-1712.55
-503.12
-248.74
-867
-121.54
-194.84
-485.13
-238.38
-492.64
-625.54
-514.79
-496.3
-283.6
-250.73
670.16
2297.23
587.64
-1507.02
67.56
377.87
-318.19
659.13
847.06
800.91
1126.13
1028
1109.56
1213.41
1204.78
1349.06
1448.75
1514.44
2170.63
2650.63
1391.31
561.75
1462.19
1519.69
1258.44
1671.56
1513.88
1262.69
1255.19
1009.06
799.19
698.31
549.62
513.63
437.5
977.81
1994.56
658.06
-1300.56
-562.44
-105.37
-567.37
-54.53
120.41
53.22
314.75
352.91
433.12
527.06
490.12
533.31
562.88
683.53
1168.47
1019.03
-133.5
-481.19
-9.72
-110.94
-143.41
122.34
3.47
-59.88
26.22
-16.55
-54
-115.47
-127.45
-79.12
-136.17
439.2
1233.44
-67.11
-1347.3
-331.72
-186.6
-634.37
-75.27
-106.95
-222.45
7.37
-67.16
-23.98
54.64
21.99
146.7
125.21
425.79
1274.43
563.25
-645.61
-13.73
213.97
-176.52
202.49
198.71
25.88
134.03
-22.17
-121.67
-94.72
-96.72
-114.86
234.41
1059.42
547.7
-766.19
-514.78
-218.31
-652.06
-513.72
-494.13
-699.62
-669.78
-723.84
-722.19
-692.37
-689.91
-709.56
-247.66
679.44
-208.16
-1819.34
-1275
-878.84
-1336.13
-949.94
-834.47
-972.87
-753.06
-757.69
-757.25
-565.84
-478.94
-618.87
-178.28
837.59
-126.5
-1723.78
-925.34
-508.87
-996.97
-498.97
-422.06
-614.06
-427.34
-567.87
-681.13
-605.06
-574.06
-655.28
-74.56
1100.47
-172.09
-1917.81
-732.31
-341.52
-876.37
-139.34
-34.64
-184.89
137.81
81.34
43.63
156.6
202.34
128.84
691.4
1801.14
582.3
-1019.64
94.57
371.17
-194.68
465.03
497.98
318.75
535.71
346.73
247.85
244.43
175.68
142.86
795.33
1891.47
540.47
-1376.11
-409.86
76.12
-462.59
-1.86
-193.08
-569.56
-290.56
-283.17
-269.98
-92.12
102.69
404.5
506.84
993.95
1735
646.44
-452.47
445.69
565.34
217.37
739.34
728.97
630.13
821.97
706.94
671.12
726.09
717.78
628.19
1050.91
2023.97
1070.41
-438.34
348.69
664.87
225.41
755.37
730.59
499.59
791.88
801.16
788.23
860.33
828.27
676.55
838.75
1519.88
963.19
-252.34
88.23
364.08
-31.52
179.87
238.41
100.7
302.52
568.35
804.79
824.26
554.1
292.69
450.04
607.88
-188.39
-929.01
-627.3
-593.9
-768.25
-433.58
-355.22
-451.09
-433.89
-551.48
-641.77
-653.94
-742.47
-308.84
602.5
1.28
-1464.09
-1260.63
-799.44
-1121.47
-869.72
-596.69
-687.44
-615.53
-586.59
-551.09
-417.16
-316.25
-439.81
-293.72
449.5
-26.06
-1355.16
-1129.53
-784.72
-1147.91
-920.03
-826.88
-1022.22
-1010.72
-1100.31
-1166.25
-1063.75
-974
-1098.56
-621.59
421.25
-676.87
-2193.81
-1174.25
-881.44
-1338.84
-678.28
-659.28
-856.47
-680.64
-806.2
-814.89
-725.91
-743.64
-595.08
-612.19
125.9
1614.98
139.41
-1940.13
-590.17
-127.59
-765.16
88.04
243.82
114.75
468.8
373.38
396.5
521.95
424.45
442.03
578.25
628.28
944.72
1799.34
1670.47
113.94
-163.5
698.41
537.34
528
1000.25
947.69
900.53
923.44
820.84
849.91
888.91
842.59
812.91
756.25
752.69
770.22
1234.44
2199.88
1561.19
-237.69
-149.41
522.53
175.47
304.81
614.31
532.31
570.28
546.19
459.69
447.78
393.59
322.41
294.87
259.66
266.97
304.97
629.31
1396.63
1197.31
-218.47
-491.16
172.41
33.06
4.31
325.13
301.16
316.22
399.53
422.03
499.84
515.09
450.28
457.38
481.81
563.47
646.75
963.8
1666.5
1213.63
-67.95
12.47
288.36
-128.63
-55.17
9.93
-183.95
-240.3
-351.94
-405
-448.3
-582
-641.31
-601.6
-588.52
-200.55
604.71
122.38
-1420.41
-1471.43
-848.8
-1051.91
-951.77
-679.42
-747.55
-686.41
-629.5
-642.27
-601.87
-656.64
-725.45
-623.75
-583.34
69.92
1244.56
171.73
-1715.94
-1003.89
-416.16
-880.75
-400.53
-184.87
-276.42
-0.08
-0.94
-21.8
95.52
89.55
151.64
267.7
676.67
1545.23
1140.92
-420.98
-515.86
3.87
-349.2
-347.16
-139.16
-367.03
-458.84
-560.91
-786.16
-829.69
-829.12
-833.05
-664.61
-598.2
25.08
1221.58
92.22
-1668.13
-641.69
-1.72
-512.09
-63.5
117.91
-20.94
149.11
96.59
122.77
245.86
213.23
262.84
356.33
187.34
462.92
1441.02
867.23
-398.77
222.89
588.42
223.69
625.19
659.22
446.2
503.42
331
210.86
96.63
-112.78
-187.14
-316
2.05
747.81
-261.72
-1932.27
-1497.3
-1073.61
-1426.73
-1023.06
-798.11
-865.17
-629.66
-543.7
-500.52
-374.35
-401.08
-377.3
-213.73
-163.86
410.41
1407.59
471.79
-897.63
-85.12
182.1
-329.09
90.82
208.75
114.58
245.6
142.25
134.77
164.09
67.75
139.69
197.93
755.7
1752.96
825.28
-872.14
-385.21
57.27
-416.9
-109.09
85.97
9.28
138.3
95.04
92.04
129.03
42.48
88.56
143.97
742.47
1774.97
698.34
-991.39
-273.83
166.84
-341.41
-11.09
-35.02
-332.95
-191.56
-241.48
-278.05
-209
-207.86
-37.13
-31.09
403.09
1494.33
472.27
-1088.03
-27.19
386.64
-82.58
579.34
739.92
622.98
861.12
758.23
642.05
652.91
599.66
565.78
952.94
1672.44
857.55
-706.25
-443.81
6.95
-339.3
-141.06
43.03
-56.63
74.12
139.86
76.02
22.59
31.66
91.27
429.95
1131.48
759.79
-599.6
-712.2
-183.97
-361.85
-291.65
-43.34
-132.19
-117.77
-76.56
-102.34
-113.55
-69.73
25.05
652.27
1621.5
725.39
-969.74
-571.5
-62.67
-464.67
-175.28
29.76
-109.6
-17
-28.89
-90.79
-68.97
-29.76
-153.28
208.89
1117.33
203.91
-1294.63
-614.8
-309.44
-773.64
-282.09
-172.9
-321.41
-103.16
-106.98
-126.4
22.62
83.07
575.57
1509.16
840.16
-798.72
-689.4
-221.21
-586.73
-432.48
-259.86
-447.59
-428.5
-458.98
-506.37
-431.3
-366.36
-368.92
124.8
786.36
-243.08
-1293.41
-450.08
-251.41
-543.58
11.61
44.8
-76.41
114.73
23.17
35.83
252.48
154.13
441.79
1396.74
809.77
-361.86
262.61
540.62
163.29
543.98
540.65
300.78
414.02
335.59
266.94
261.67
-0.17
106.94
824.22
424.67
-654.59
-352.56
-57.77
-384.5
-220.33
-153.11
-272.08
-261.61
-404.69
-498.06
-461.84
-526.03
-90.44
804.5
171.03
-1096.33
-547.56
-124.58
-513.5
-204.75
-77.2
-295.28
-346.28
-525.87
-677.98
-674.05
-718
-79.69
1068.88
84.58
-1788.94
-1306.69
-759.23
-1194.64
-815.83
-540.14
-600.34
-412.27
-415.74
-470.63
-427.2
-378.06
-466.37
88.79
1264.65
101.01
-1734.71
-783.68
-389.86
-966.99
-307.36
-174.75
-297.53
32.45
-20.08
-19.6
143.88
182.94
167.62
758.77
1801.02
722.94
-975.48
-125.2
344.34
-77.95
539.28
674.28
444.3
609.11
553.72
509.5
585.03
543.56
589.75
634.44
1214.16
2252.41
1252.66
-600.78
-160.09
329.41
-151.56
173.66
392.34
264.94
390.25
317.47
231.84
266.47
198.75
124.69
157.44
172.5
861.41
1978.75
785
-1126.44
-446.59
36.72
-468.87
0.37
216.75
114.91
320.44
320.88
379.84
520.44
494.09
470.41
525.12
589
519.53
826.31
1462
458.28
-803.5
-100.95
97.37
-287.59
122.62
122.53
-21.14
108.42
20.7
6.89
11.08
-109.31
-85.12
-23.08
-176.19
223.7
1248.14
322.71
-1217.95
-412.5
-66.25
-573.25
-100.31
-20.5
-192.92
-9.73
-41.23
-3.11
76.29
40.64
108.39
147.29
184.86
769.36
1340.34
237.19
-786.77
-83.65
-12.01
-348.46
65.41
152.67
153.45
313.6
306.79
374.16
352.52
274.08
327.2
123.34
169.52
899.22
398.81
-990.87
-790.45
-449.33
-871.61
-761.36
-674.72
-823.3
-789.3
-806.7
-845.27
-800.56
-780.97
-722.72
-576.41
-428.47
-526.81
-96.72
1147.81
475.34
-1050.69
-274.25
146.44
-416.16
-15.34
71.37
-146.81
-33.06
-138.91
-158.19
-79.5
-198.75
-330.37
-364.81
-523.84
-83.81
1055.69
165.78
-1539.66
-826.44
-357.44
-882.28
-442.19
-230.12
-349.91
-261.97
-387.28
-422.98
-408.73
-504.02
-566.42
-609.53
-604.2
-488.11
-624.62
-93.69
1231.28
-154.05
-2218.11
-1059.55
-602.95
-1197.61
-393.52
-189.88
-261.97
187.23
213.82
242.02
365.29
367.01
437.71
455.29
393.02
407.42
466.29
340.51
756.89
1779.18
818.3
-825.2
-33.89
421.24
-61.73
357.95
379.73
168.87
293.13
166.1
92.12
171.25
122.5
93.86
106.7
87.23
183.81
304.72
303.39
918.91
1740.97
947.91
764.98
1819.78
865.27
32.48
440.91
-7.91
-249.73
-208.34
-501.11
-460.28
-370.67
-371.78
-248.14
-200.92
-148.47
4.09
-24.98
472.5
1092.53
-907.56
-2551.58
-1070.69
-992.84
-1611.59
-706.39
-398.59
-24.61
510.08
435.84
618.48
736.03
645.41
657.84
541.12
555.77
625.3
1215.11
2289.77
1238.7
-636.3
-47.98
488
42.3
446.25
596.03
463.11
703.17
729.5
738.36
873.86
893.48
887.69
923.94
971.92
861.66
937.41
1479.66
1053.98
53.19
250.75
437.18
151.57
280.76
248.32
83.6
93.93
-65.99
-212.85
-348.8
-549.21
-532.75
-538.01
-150.59
720.38
-3.83
-1467.34
-1054.55
-652.89
-1041.41
-784.44
-674.56
-784.09
-663.84
-691.16
-711.78
-685.84
-702.94
-573.28
-599.47
-155.5
902.62
-91.25
-1818.81
-1132.63
-664.66
-1112.13
-638.44
-459.31
-579.03
-382.84
-437.16
-499.41
-469.16
-407.44
-290.91
300.16
1350.81
561.06
-1326.13
-1009.34
-345.16
-757.06
-475.94
-187.34
-293.59
-156.63
-157.66
-238.06
-191.31
-144.31
-94.37
263.69
976.08
624.39
-816.55
-926.5
-268.8
-448.11
-401.98
-73.98
-127.64
-122.7
-46.52
-124
-166.94
-104.47
-17.11
7.36
521.61
1088.58
-86.35
-1115.78
-283.57
-182.41
-535.53
-54.9
17.19
31.65
262.07
213.98
256.91
338.36
374.32
363.86
781.37
1709.01
1051.8
-347.65
109.79
439.27
28.01
307.75
295.75
114.8
221.2
106.95
18.04
7.04
-48.75
-58.2
455.55
1362.32
513.61
-1169.14
-741.13
-197.24
-596.99
-344.08
-170.47
-294.03
-204.83
-226.93
-301.97
-267.91
-179.31
-131.54
447.17
2067.92
2388.52
699.55
222.8
602.41
80.46
-132.66
-24.69
-215.98
-258.78
-229.11
-220.1
-302.87
-644.15
-1130.57
-699.59
578.43
-893.55
-2847.42
-1316.34
-876.86
-1347.13
-72.66
164.53
90.64
646.83
583.36
611.97
820.17
812.41
931.8
1416.08
1632.08
618.23
24.39
751
778.17
486.59
737.45
577.11
460.2
604.95
484.08
492.95
622.08
485.39
699.98
1399.08
709.08
-567.31
-190.27
69.55
-319.59
-63.69
32.19
-118.53
-32.58
-95.98
-194.87
-135.02
-79.46
320.09
1080.15
625.42
-764.36
-737.16
-194.76
-358.73
-178.14
31.66
-108.27
30.51
200.89
182.69
287.21
370.33
345.39
670.71
993.47
187.25
-556.61
-111.31
-48.86
-285.3
-98.36
-201.13
-355.84
-339.14
-458.8
-500.66
-526.42
-805.87
-458.77
544.8
-344.17
-1826.88
-1004.95
-602.66
-1033.58
-550.97
-492.63
-619.83
-382.48
-403.64
-457.39
-404.08
-401.78
126.73
1096.67
383.38
-1350.7
-1128.94
-483.41
-810.49
-502.91
-149.81
-266.29
-146.4
-101.94
-178.75
-115.49
-60.11
-77.74
547.02