315.87
220.97
-303.53
222.82
140.84
-266.18
1.15
31.69
-174.13
219.06
22.18
-202.25
299.19
-7.78
-217.19
116.73
6.03
-163.84
122.35
-162.68
-87.24
375.34
-100.8
-62.39
271.33
-41.92
-127.22
120.41
-213.96
51.88
367.9
-184.52
103.36
359.49
-119.45
-133.77
103.27
-156.23
214.26
276.88
-266.12
175.81
210.29
-232.53
-55.08
35.05
-185.04
255.89
127.59
-256.88
255.33
57.2
-273.47
20.78
-25.29
-240.23
118.54
-231.04
526.38
1465.42
-759.96
-454.82
822.09
-500.39
-34.82
565.48
-213.92
-218.46
171.22
-63.07
84.36
130.45
-279.16
65.39
19.39
-243
253.46
173.14
-296.52
89.13
4.18
-98.66
136.75
-215.12
-36.21
68.59
-289.38
46.1
205.46
-259.57
9.84
-0.33
-178.57
139.17
-142.42
-85.36
156.43
-276.2
-238.48
131.17
-198.99
-68.79
22.75
-186.21
140.89
-47.52
-92.59
255
-186.89
-409.31
99.97
-71.93
-4.54
127.84
-198.37
118.21
37.98
-195.75
162.55
-33.76
-350.35
76.02
6.53
61.85
215.34
-190.71
80.78
97.35
-312.71
-16.08
51.7
-302.57
20.29
27.28
8.38
246.33
-99.62
55.02
139.21
-404.77
-260.23
60.74
-273.63
-34.27
85.09
-11.85
291.79
20.27
53.11
263.8
-279.91
-299.17
184.61
-122.6
8.81
184.74
-46.77
267.87
106.15
27.67
399.15
-35.38
-312.69
213.69
32.74
84.44
260.61
-116.46
179.67
139.83
-141.58
233.4
102.16
-255.17
151.92
72.21
70.72
263.46
-129.85
98.35
139.17
-266.87
90.44
235.18
-206.45
84.88
80.17
-51.27
231.32
265.42
-354.29
-1979.82
-359.41
1983.37
256.41
-154.59
425.76
-247.36
102.89
201.2
-243.96
58.43
130.07
-161.21
221.85
-49.96
-229.61
315.78
-75.57
-204.74
186.41
-23.95
-182.31
90.17
-265.54
-90.62
364.3
-178.59
-15.88
325.03
-119.71
-190.47
84.22
-237.57
80.61
298.73
-265.71
97.43
239.15
-250.71
-142.66
58.19
-160.54
279.97
188.23
-339.4
186.9
98.64
-305.51
-13.59
6.33
-209.13
208.61
-14.18
-259.24
265.73
-56.12
-265.62
94.52
-38.21
-196.66
117.5
-214.34
-143.03
346.53
-149.38
-85.08
264.81
-107.57
-195.86
74.4
-260.5
33.1
329.38
-236.65
78.16
295.48
-193.99
-155.34
64.42
-187.76
225.95
233.2
-312.09
167.87
149.66
-281.3
-40.7
30.89
-164.65
282.37
59.26
-294.18
256.75
-1.64
-273.89
81.41
-15.54
-204.41
131.92
-157.18
-156.73
332.82
-118.34
-125.16
218.24
-87.74
-187.89
79.22
-269.26
-5.99
364.06
-202.35
65.3
346.37
-155.6
-180.48
71.96
-204.15
184.08
280.86
-281.37
156.95
201.65
-259.38
-75.29
29.63
-182.46
285.07
134.6
-286.87
-33.95
522.97
1197.79
-1096.64
-1910.79
982.13
363.04
-887.82
491.99
239.69
-300.25
179.19
71.22
-47.01
-54.97
32.25
-204.7
12.71
368.5
-134.66
72.27
384
-93.66
-163.48
128.37
-162.88
161.73
308.61
-247.48
153.83
243.72
-214.24
-61.16
70.06
-119.75
365.61
180.08
-327.32
242.57
85.55
-286.82
44.28
3.35
-210.06
183.45
-59.85
-189.26
315.14
-68.93
-188.71
164.15
-42.76
-187.49
79.13
-263.33
-65.41
391.32
-158.08
5.5
337.98
-117.02
-182.61
90.65
-225.3
113.6
328.28
-243.04
127.07
266.37
-214.14
-101.93
65.22
-150.83
320.3
210.58
-322.45
217.79
113.44
-286.76
16.28
16.83
-197.64
210.57
-18.82
-219.11
296.77
-32.03
-192.35
123.48
-59.98
-187.69
89.38
-239.34
-83.45
371.29
-148.28
-31.95
291.2
-120.18
-200.22
61.64
-245
90.31
340.73
-230.54
114.88
287.94
-200.44
-133.97
46.32
-157.57
305.49
223.37
-311.35
211.98
133.54
-278
-4.59
21.41
-183.6
233.88
17.07
-234.4
286.28
-28.81
-246.17
109.22
-18.17
-190.89
108.27
-196.53
-106.46
364.48
-129.46
-61.23
25.75
-792.44
-208.17
2209.69
1171.75
-1431.07
177.67
388.16
-698.32
252.91
-112.74
-202.41
-68.01
-232.85
259.06
-109.47
-139.23
271.66
-134.38
-268.42
50.25
-273.14
41.5
291.68
-284.81
74.52
237.77
-243.46
-137.95
43.4
-186.7
268.66
184.01
-348.67
180.19
95.2
-309.25
-17.37
3.01
-206.74
205.34
-21.23
-251.52
271.46
-56.62
-251.46
114.29
-29.19
-199.7
95.39
-223.4
-115.78
358.87
-146.16
-55.81
288.12
-99.38
-178.25
94.24
-237.49
60.46
335.23
-228.64
99.03
295.95
-188.29
-130.26
75.51
-159.91
267.21
232.35
-304.49
194.49
149.68
-263.63
-1.21
41.99
-172.89
251.64
41.5
-250.95
278.78
-8.42
-249.44
101.74
-11.26
-200.13
109.94
-167.65
-111.41
357.6
-112.48
-76.35
259.88
-76.64
-170.26
94.49
-240.06
38.85
365.47
-198.56
93.44
339.12
-179.56
-199.32
79.41
-148.93
218.15
273.65
-265.07
177.06
187.47
-270.43
-63.77
37.29
-172.59
279.6
114.58
-257.65
273.82
44.32
-250.87
87.93
20.77
-169.14
168.65
-110.05
-143.91
347.2
-85.68
-121.08
232.27
-40.2
-157.25
1219.5
1144.74
-886.83
-147.22
476.52
-301.33
-1.55
-166.93
-209.08
-115.3
72.78
139.51
-291.85
47.86
121.38
-302.82
-141.57
6.23
-187.77
247.77
61.42
-360.19
193.38
-5.37
-317.87
31.23
-33.02
-237.55
122.44
-148.45
-215.12
287.34
-128.36
-195.13
152.23
-102.32
-230.74
30.91
-297.91
-51.57
360.14
-197.65
20.72
326.71
-154.04
-199.37
70.54
-224.2
137.53
300.58
-265.88
135.77
234
-234.77
-82.3
67.11
-126.86
355.42
182.12
-333.77
234.04
91.98
-285.21
44.16
21.03
-191.93
198.26
-47.55
-200.69
309.94
-62.01
-202.91
155.99
-25.24
-175.28
92.37
-245.09
-71.78
389.56
-146.56
-3.96
336.44
-89.79
-157.17
120.58
-201.5
101.63
328.73
-229.17
123.1
282.65
-188.49
-91.62
92.74
-138.95
299.32
219.63
-310.19
210.44
133.35
-272.12
5
25.88
-185.41
232.17
17.21
-230.7
289.46
-18.38
-224.89
112.89
-32.53
-195.94
111.87
-189.71
-100.98
367.89
-122.82
-60.19
271.8
-90.41
-172.96
96.15
-233.38
55.45
356.05
-207.75
100.23
324.07
-169.26
-143.17
1049.51
873.26
-1664.45
-1555.45
915.48
231.66
-810.14
655
260.55
-424.86
409.94
156.22
-197.06
33.71
44.84
-76.51
369.48
180.81
-290.9
237.47
112.72
-249.5
53.28
45.81
-168.3
220.99
-20.46
-215.09
301.34
-51.17
-223.74
142.59
-18.58
-179.46
116.32
-221.56
-104.92
374.58
-143.46
-46.12
294.4
-106.69
-183.14
90.47
-241.64
64.67
338.4
-230.49
99.5
293.44
-193.96
-127.03
82.71
-169.06
253.53
230.98
-311.54
183.63
146.09
-270.84
-12.72
34.78
-173.14
262.98
40.69
-278.17
263.41
-16.9
-276.4
75.17
-27.95
-218.6
91.98
-177.86
-127.74
338.27
-125.74
-97.41
246.2
-65.84
-150.19
127.65
-228.34
-3.22
335.41
-211.82
60.92
328.46
-144.25
-141.44
104.91
-183.47
173.72
244.3
-300.36
141.71
172.1
-263.2
-42.12
64.57
-156.54
292.86
97.85
-327.8
229.05
22.5
-303.18
34.24
-32.48
-223.18
163.62
-108.24
-199.15
310.29
-100.35
-192.91
144.89
-83.52
-192.57
61.31
-280.39
-43.72
373.52
-181.61
30.36
349.3
-128.24
-184.44
90.04
-216.72
127.45
306.04
-260.69
130.2
428.13
-30.59
78.12
1935.49
1619.05
-1032.17
-140.17
338.57
-855.7
231.88
-110.73
-653.55
267.79
-261.43
-451.25
76.3
-185.65
-319.05
-0.97
-397.91
-245.34
247
-284.87
-152.02
204.68
-208.49
-263.98
34.75
-311.19
-28.9
236.83
-318.36
20.89
218.71
-245.34
-178.96
10.01
-229.83
205
175.73
-359.09
143.67
107.09
-306.12
-70.58
-39.44
-199.87
271.11
25.27
-293.94
263.81
-21.63
-275.92
102.01
19.49
-190.98
114.64
-150.58
-134.44
341.47
-103.07
-104.4
237.11
-62.98
-166.86
98.83
-242.07
18.63
387.89
-174.06
92.2
379.63
-118.36
-141.36
132.65
-159.09
193.53
312.11
-243.99
177.82
245.04
-206.4
-29.44
87.45
-104.93
381.64
185.29
-299.73
272.61
103.21
-248.8
81.74
38.49
-151.22
232.25
-44.42
-172.33
342.53
-43.8
-150.56
212.04
-1.33
-151.18
113.4
-238.59
-52.29
409.04
-136.86
16.39
343.98
-93.57
-121.56
153.55
-217.37
109.6
356.82
-226.09
135.39
302.96
-179.58
-85.14
101.57
-136.3
299.89
234.91
-297.98
214.62
148.91
-266.91
0.8
41.2
-186.69
220.59
40.79
320.37
370.46
-1196.38
1081.62
2197.67
-1437.23
-529.59
981.75
-982.32
-99.93
549.1
-553.21
0.39
191.28
-277.05
-161.12
-17.02
-350.38
-12.23
274.05
-265
29.29
274.26
-207.08
-220.19
28.84
-240.36
138.18
232.48
-321.89
115.15
164.13
-287.18
-96.03
17.06
-178.24
305.02
113.45
-351.57
216.16
34.03
-311.67
25.59
-24.02
-227.94
160.89
-93.98
-211.72
296.89
-94.54
-209.01
143.05
-60.12
-192.67
74.41
-274.61
-81.36
377.54
-169.21
-8.53
333.37
-105.65
-168.06
113.82
-222.7
82.52
320.68
-243.86
108.92
272.46
-207
-113.53
67.74
-173.7
282.28
225.22
-318.4
199.94
134.87
-283.56
-8.91
26.81
-190.41
240.84
35.8
-248.4
278.93
-14.12
-250.88
108.73
-12.26
-224.71
107.49
-149.15
-121.84
351.52
-105.78
-91.62
245.82
-79.26
-183.9
81.8
-249.82
26.98
372.03
-193.91
87.2
353.21
-142.79
-148.58
107.59
-176.65
192.09
281.24
-273.46
162.73
210.58
-230.6
-35.81
70.82
-123.85
347.49
135.95
-324.68
245.85
56.19
-281.67
61.04
5.72
-197.04
181.64
-86.94
-196.15
312.83
-86.24
-178.98
196.9
586.05
369.74
-920.47
-145.74
1318.46
-351.58
-587.35
618.94
-294.43
-215.12
369.08
-251.49
-266.18
67.83
-336.77
33.49
289.48
-302.29
67.05
242.63
-232.26
-130.54
59.09
-210.14
218.34
192.34
-348.54
153.02
125.76
-273.57
-37.18
-14.49
-201.21
237.47
9.96
-290.5
247.14
-34.77
-276.84
79.08
-26.27
-203.11
120.52
-182.54
-157.01
332.63
-131.93
-117.14
233.7
-83.48
-188.62
81.34
-257.6
-0.97
352.56
-205.56
66.99
344.35
-143.74
-159.28
94.33
-188.91
178.32
272.75
-280.52
153.58
200.14
-254.81
-70.51
34.86
-168.79
310.52
141.83
-301.51
250.21
60.85
-277.47
56.03
4.19
-201.18
179.21
-71.69
-173.81
328.36
-69.92
-167.38
183.36
-43.64
-185.33
75.28
-260.33
-39.2
399.79
-154.76
28.75
350.53
-109.98
-163.23
111.63
-205.53
130.69
333.47
-235.03
140.6
273.55
-198.94
-76.63
87.42
-128.68
334.38
210.99
-314.71
228.22
122.5
-266.8
33.67
30.7
-175.24
236.32
-7.54
-224.79
300.21
-43.4
-231.24
135.86
-16.81
-190.83
99.8
-213.12
-93.5
374.18
-135.47
18.6
189.5
-987.96
-818.05
1397.66
921.9
-644.96
105.69
195.08
-124.83
133.38
-139.88
-60.38
103.15
-205.72
78.87
-116.46
-138.53
359.15
-96.79
-87.81
269.56
-85
-189.05
92.23
-251.36
33.7
368.1
-206.04
89.28
325.73
-188.5
-171.64
71.75
-188.5
227.29
272.58
-287.91
178.62
183.23
-253.86
-17.04
58.56
-156.29
293.26
85.13
-286.62
262.58
14
-269.15
91.97
2.21
-191.11
149.35
-148.22
-160.33
336.15
-114.47
-121.75
231.18
-82.45
-189.35
88.63
-255.44
-5.6
351.27
-208.32
61.3
332.28
-166.32
-177.14
87.1
-186.46
180.52
257.96
-291.98
148.4
183.87
-252.7
-46.61
49.11
-144
316.13
95.11
-323.29
241.67
19.3
-290.13
64.22
-5.42
-172.73
177.72
-150.81
-192.04
322.63
-121.87
-148.16
220.15
-73.63
-191.08
85.32
-266.56
-33.87
345.69
-210.13
43.93
341.16
-144.44
-168.78
95.21
-198.36
152.24
257.38
-293.88
132.7
186.9
-255.8
-61.22
21.22
-210.16
301.46
141.48
-334.32
230.58
41.91
-307.72
44.7
-26.82
-242.47
145.61
-108.99
-175.7
323.95
-95.54
-154.79
1050.42
1377.71
-1568.8
-2061.42
1197.8
192.97
-924.75
1006.71
51.32
-551.82
542.54
-69.87
-300.66
123.34
-77.24
-149.49
247.97
-70.48
-180.87
318.94
-64.64
-191.69
163.78
7.19
-132.45
98.12
-248.71
-65.84
384.11
-150.67
7.74
341.66
-104.19
-165.31
106.58
-215.74
118.67
324.69
-244.63
130.7
259.61
-212.08
-66.73
99.17
-141.87
323.48
206.33
-326.48
220.48
106.96
-273.47
69.2
57.85
-161.81
249.02
-36.06
-242.74
302.64
-65.22
-224.34
162.44
-15.94
-170.7
97.58
-256.52
-89.77
370.13
-166.38
-3.91
355
-87.34
-168.28
115.67
-203.56
90.36
295.67
-255.83
107.25
248.65
-210.52
-91.64
74.8
-148.95
301.87
185.49
-337.31
201.72
95.95
-289.14
28.48
32.59
-174.91
225.87
-40.06
-246.69
286.49
-69.08
-230.4
153.98
-26
-190.81
83.61
-267.96
-100.21
371.42
-169.08
-17.77
335.94
-95.98
-159.19
113.89
-215.5
91.71
298.81
-257.94
108.49