-22.04
-26.84
-89.53
-202.97
-258.4
-285.37
-335.14
-368.27
-328.29
-290.87
-346.21
-360.29
-307.38
-277.03
-155.57
31.94
128.13
190.68
252.68
229.35
157.07
141.55
183.23
213.02
222.36
230.87
229.34
225.2
210.98
198.91
216.18
211
189.28
195.1
177.44
132.75
119.57
127.57
118.58
103.44
101.52
93.58
65.97
61.1
84.03
85.22
64.84
45.05
42.35
55.93
42.22
13
9.31
3.94
7.67
31.82
20.25
-9.37
-11.42
-5.93
-12.03
-17.77
-13.88
-26.31
-53.24
-48.12
-25.57
-18.69
-18.67
-16.63
-15.88
-31.88
-54.81
-52.77
-44.74
-51.08
-48.27
-40.23
-58.07
-80.78
-66.02
-43.23
-46.61
-50.64
-37.32
-33.72
-59.42
-62.59
-43.67
-58.33
-72.92
-81.2
-89.76
-65.36
-48.38
-53.18
-63.36
-74.07
-59.77
-45.7
-49.88
-53.19
-59.65
-81.21
-85.3
-54.02
-47.05
-51.42
-36.69
-52.45
-92.13
-184.27
-295.79
-247.52
-130.25
-119.13
-96.88
-34.25
-16.77
-0.87
8.74
3.91
21.66
25.82
17.63
10.09
-1.32
13.49
21.51
10.12
23.43
30.23
4.38
-2.48
15.04
20.21
23.53
25.77
12.95
-5.89
-18.61
-11.09
1.05
9.21
31.47
26.53
-12.08
-11.46
15.41
25.76
31.9
21.41
-16.9
-75.97
-140.89
-165.99
-123.26
-61.5
-33.38
-4.02
17.54
4.43
15.82
39.98
46.16
49.7
44.39
47.9
53.81
51.83
48.85
48.15
56.18
49.27
41.97
47.52
49.44
57.3
57.47
46.6
28.65
16.28
33.38
54.64
46.71
21.65
16.05
30.54
42.25
35.7
14.76
12.7
22.43
39.45
51.38
19.56
-2.68
10.5
-0.32
-60.44
-158.13
-240.63
-275.93
-255.13
-163.31
-71.12
-46.39
-88.09
-172.7
-189.1
-79.32
10.69
35.98
90.28
112.75
48.72
-46.13
-103.41
-79.55
-56.58
-68.77
-70.43
-83.51
79.2
317.3
84.95
-123.07
157.91
208.99
120.73
218.3
180.16
157.36
215.64
199.95
211.16
220.79
180.34
168.05
173.38
167.26
134.39
58.81
30.62
60.7
56.17
59.69
94.85
107.29
110.43
110.44
70.13
2.04
-4.02
42.79
44.44
41.53
59.9
41.13
39.69
65.76
39.54
-19.21
-47.34
-12.4
34.13
31.51
25.67
34.43
22.5
5.53
11.87
7.34
-49.86
-87.7
-53.51
-20.19
-1.49
0.86
-59.58
-86.35
-40.55
-33.35
-30.01
7.79
13.61
9.57
23.35
12.35
2.81
24.44
21.15
-2.09
-17.65
-28.14
-19.18
-19.86
-29.03
-30.25
-24.43
-23.21
-105.49
-212.4
-205.91
-136.17
-88.9
-64.22
-38.72
-48.18
-114.92
-117.84
-64.12
-97.88
-111.94
-39.16
-29.74
-33.97
10.89
15.91
14.32
22.75
22.25
45.51
44.29
24.32
16.21
0
10.34
29.22
22.99
9.61
1.47
-5.77
-19.61
-8.93
13.05
6.87
8.79
21.42
-71.7
-269.52
-297.68
-156.12
-146.39
-196.25
-198.79
-211.16
-179.42
-136.16
-72.64
22.48
84.54
132.88
112.72
70.37
92.27
97.21
102.49
115.85
93.14
70.8
53.34
51.42
76.26
83.08
50.47
28.2
25.32
-8.76
-53.45
-49.5
-18.1
-5.79
16.55
34.71
19.25
20.57
23.61
20.32
38.08
39.73
23.07
6.47
3.92
21.17
42.08
51.07
9.86
-21.83
8.59
23.94
11.22
-20.75
-89.12
-168.88
-177.28
-104.17
-71.87
-80.38
-106.43
-149.67
-105.76
-35.85
-42.24
-84.74
-112.38
-68.68
1.24
30.09
41.13
15.43
-28.8
5.83
52.81
-6.39
-51.72
5.09
64.83
81.4
76.1
247.11
414.48
0.93
-296.56
21.25
13.8
-181.27
-49.29
42.72
47.98
70.85
77
86.23
92.48
105.06
119.83
106.25
90.36
97.96
95.36
77.75
37.42
-34.92
-46.37
10.67
8.88
-37.64
-29.5
-17.74
-65.95
-84.71
-80.05
-80.44
-19.02
22.51
29.98
76.55
101.69
93.54
81.73
69.35
78.15
50.49
-35.67
-47.69
12.55
34.89
61.54
92.65
71.36
23.68
-32.12
-60.84
-73.73
-86.58
-37.88
14.92
26.71
54.26
78.01
72.26
60.58
70.08
83.35
57.57
28.5
29.7
27.11
-7.69
-57.84
-46.75
-2.34
-10.77
-1.28
35.28
23.38
4.68
9.09
5.16
-27.2
-73.68
-59.24
-11.54
-16.47
-10.56
25
19.13
2.85
-25.62
-96.54
-97.31
-20
2.86
0.04
-19.48
-83.12
-70.51
-11.34
-46.53
-140.52
-188.65
-129.26
-31.4
7.37
21.16
34.18
48.93
66.61
55.43
38.92
40.69
37.16
38.67
56.38
66.47
52.58
6.41
-54.38
-51.25
-3.89
-12.42
-19.79
8.25
12.75
26.41
47.3
33.76
20.7
28.63
33.64
20.29
-17.58
-65.96
-73.65
-54.64
-83.46
-126.68
-143.5
-152.42
-112.07
-40.91
-31.33
-81.65
-105.47
-46.53
24.58
11.08
-49.67
-68.74
-26.41
34.39
55.27
41.47
51.15
70.12
81.69
95.74
76.71
59.99
78.8
85.71
72.18
55.86
39.07
-9.93
-57.75
-27.13
18.42
27.86
15.35
-61.43
-156.23
-140.13
-55.26
-43.45
-84.08
-101.65
-97.82
-85
-60.12
-20.42
-24.96
-41.4
10.25
36.42
33.57
78
125.79
143.86
101.49
24.36
-0.58
40.45
84.68
83.02
72.09
78.07
92.39
92.63
86.56
83.8
-2.96
-123.83
-120.59
-39.08
3.65
13.83
39.06
59.29
66.35
78.24
67.35
60.37
65.24
25.47
-36.81
-97.39
-175.02
-246.82
-268.6
-234.56
-190.27
-158.19
-95.12
-52.42
-70.26
-13.71
78.78
84.72
108.25
147.01
148.21
166.53
155.15
117.15
88.53
55.9
76.6
101.87
73.09
25.81
-43.35
-76.92
-86.8
-157.2
-216.42
-227.38
-265.5
-335.48
-392.42
-409.55
-387.59
-371.3
-377.09
-373.04
-384.32
-394.9
-363.29
-363.29
-313.81
-157.07
-93.7
-113.46
-86.27
-49.8
41.02
962.59
1969.66
565.47
-703.06
461.81
461.15
-162.55
355.89
257.31
182.69
472.36
260.76
190.24
292.44
211.02
208.01
228.67
185.05
174.13
204.07
302.31
381.26
383.47
384.15
369.33
349.3
357.69
305.95
175.73
67.62
7.5
-25.23
-31.33
-35.3
-52.41
-54.17
-23.12
22.37
189.73
392.56
181.56
-29.06
205.55
203.62
65.84
163.37
135.45
101.98
106.08
-43.97
-145.66
-161.33
-239.86
-295.5
-249.41
-208.03
-213.55
-212.84
-211.75
-234.3
-201.53
-47.75
75.91
77.93
81.86
101.92
79.04
55.54
25.2
-66.84
-165.09
-207.89
-231.5
-265.26
-263.97
-235.54
-236.5
-236.55
-88.19
134.92
7.98
-147.3
71.17
94.23
7.3
97.75
43.18
-10.38
3.32
-110.99
-197.57
-220.39
-287.89
-291.43
-245.73
-288.73
-336.74
-291.63
-228.95
-204.3
-149.23
-26.37
76.2
95.52
91.92
104.34
111.7
111.85
74.93
-1.34
-11.17
7.45
-89.8
-175.65
-168.77
-192.66
-225.48
-228.78
-236.63
72.31
519.37
113.42
-311.44
117.92
123.35
-68.16
146.5
87.02
19.84
64.93
-88.37
-179.73
-191
-258.94
-276.92
-263.15
-279.22
-290.56
-299.5
-285.09
-215.02
-82.14
20.03
-5.49
6.48
119.71
167.48
190
208.72
158.71
155.29
187.08
163.16
136.84
43.18
-105.49
-134.03
-141.2
-199.65
-197.37
-198.25
-213.5
-196.07
-188.1
-160.41
-140.9
-140.66
-91.59
-34.39
60.75
192.06
246.76
290.53
307.29
259.04
267.79
297.7
297.11
231.6
95.43
9.27
-53.52
-111.08
-117.74
-123.96
-141.72
-149.57
-122.91
-98.44
-115.37
-100.4
-73.9
-96.86
-75.57
51.61
181.11
225.04
241.26
272.02
281.77
286.67
305.05
304.88
291.03
287.76
286.11
273.07
254.35
230.33
171.62
84.66
72.03
137.35
157.1
106.38
29.05
-12.59
-20.68
-25.36
19.82
57.38
56.94
87.73
89.13
19.7
-3.18
56.37
90.01
79.21
69.81
56.8
44.25
38.4
35.65
43.67
41.26
16.88
9.44
16.64
-22.31
-103.51
-122.36
-65.53
-35.98
-25.21
4.37
13.38
1.22
-1.46
6.4
4.37
-11.13
-18.58
-13.62
-21.01
-50.24
-67.63
-58.91
-49.81
-50.1
-59.86
-63.64
-57.57
-67.32
-58.34
-33.25
-90.61
-197.58
-234.91
-240.38
-263.85
-260.46
-241.72
-229.69
-185.48
-128
-174.77
-286.3
-330.04
-345.25
-369.2
-382.72
-344.49
-207.52
-63.01
-16.68
-59.72
-73.91
23.21
112.99
137.75
186.7
196.36
81.22
658.7
2205.86
1911.92
-626.43
-673.93
918.13
323.79
283.23
-54.49
-1760.81
-828.29
-438.86
-1527.51
-830.64
-767.41
-1080.4
-472.79
-209.61
-15.27
184.4
211.19
297.1
368.19
1028.96
1656.85
806.1
328.65
485.77
-134.14
-212.5
-231.75
-711.74
-601.47
-321.4
-309.67
243.03
1088.89
314.59
-501.78
288.08
327.34
-21.59
317.33
207.89
112.9
253.88
148.04
140.85
139.96
17
49.85
143.8
95.63
17.07
42.97
105.86
108.75
97.76
96.92
78.29
69.2
60.25
51.43
71.24
86.63
72.68
24.19
-40.14
-21.49
38.58
22.99
13.43
33.04
25.26
-5.14
-53.21
-43.84
5.13
5.92
12.94
-7.43
-89.41
-76.28
-7.1
-17.98
-11.89
31.09
25
6.5
2.84
-0.49
1.73
-7.58
-24.22
-28.27
-29.49
251.6
358.96
150.82
330.02
4.87
-222.89
-418.2
-1420.82
-1568.36
-646.87
721.62
467.31
-297.5
451.58
215.98
-49.81
323.96
-1073.29
-2532.73
-1575.51
-1134.38
-1753.37
-1204.32
-1087.64
-1263.72
-909.69
-919.27
-876.09
-694.92
-681.5
-591.15
-491.12
-449.69
-365.26
-297.19
-243.97
-174.59
-119.42
-66.22
-10
38.19
86.19
132.47
174.56
216
254.75
290.87
325.62
357.75
388.06
416.81
443.25
468.16
491.06
512.34
532.03
549.97
566.44
581.44
594.88
606.87
617.5
626.75
634.69
641.5
647
651.37
654.62
656.81
657.88
658
657.12
655.31
652.62
649.25
644.88
639.69
633.94
627.25
620.06
612.19
603.62
594.62
584.87
574.75
564.19
552.94
541.5
529.5
517.12
504.5
491.38
478
464.44
450.62
436.44
422.19
407.69
392.97
378.16
363.19
348.16
333
317.81
302.53
287.25
271.91
256.63
241.34
226.09
302.66
591.81
915.41
1063.81
1159.19
1235.69
1232.86
1216.33
1167.16
1094.5
1049.64
993.66
928.12
854.17
757.26
668.34
601.87
539.64
468.44
397.79
324.11
204.79
51.84
-3.67
13.55
-35.14
-86.06
-122.41
-188.94
-234.62
-287.12
-362.47
-409.63
-447.03
-526.5
-623
-633.38
-592.37
-616.31
-657.62
-693.37
-733.06
-736
-741.44
-762.25
-788.25
-836.5
-863
-855.5
-865.06
-874.62
-874.81
-912.31
-951.69
-946.12
-928.81
-922
-916.13
-923.75
-951.25
-958.13
-945.75
-942.37
-931.87
-914.63
-903.25
-904.5
-922.12
-923.87
-901.62
-888
-875.25
-848
-830.25
-845.5
-849.38
-809.5
-788.5
-776.13
-752.37
-761.88
-752.13
-711.38
-693.37
-679.62
-669
-660.63
-633.38
-604.94
-585.5
-560.19
-539
-539.13
-530.19
-495.81
-466.88
-493.44
-554.38
-516.75
-419.31
-389.94
-353.62
-305.5
-298.87
-267.19
-236.87
-246.81
-232.62
-193.31
-169.06
-163.5
-162.88
-146.19
-112.75
-78.84
-56.28
-50.88
-53.53
-39.34
-12.16
6.53
11.63
14.59
44.5
80.81
83.12
80.61
93.34
111.53
134.3
161.05
183.2
185.55
178.51
181.23
199.54
223.12
234.62
238.26
254.18
278.89
284.7
282.98
284.86
296.53
285.29
209.83
227.67
327.53
321.8
321.22
372.2
377
371.19
381.78
390.94
397.41
409.25
404.12
394.59
402
412.25
419.81
404.97
407.38
422.5
403.84
407.25
423.84
411.88
401.87
412.78
411.5
396
413.72
416.69
389.5
396.69
412.12
403.31
386.19
391.38
389.25
371.13
392.62
392.69
359.56
372.56
369.81
336.44
354.69
378.88
363.62
355.37
354.13
342.44
334.5
326.44
314.63
313.06
299.12
259.75
247.19
265
272
271.19
263.81
248.06
236
211
149.38
131.31
194.5
220.31
199.31
187.56
179.19
186.62
189.75
188.75
203.37
200.09
168.5
142.16
143.19
156.91
164
163.84
155.34
141.41
119.16
100.47
103.84
108.34
91.94
64.53
52.13
59.41
72.5
86.56
76.03
44.19
32.88
40.28
38.28
26.53
22.5
12.5
-15.78
-25.03
-8.09
3.52
6.92
5.75
-3.66
-27.87
-45.63
-32
-29.12
-48.78
-58.78
-75.56
-91.47
-76.28
-54.31
-48
-56
-69.84
-72.36
-76.54
-89.09
-91.6
-106.25
-118.31
-89.07
-76.08
-106.53
-123.84
-125.75
-111.04
-91.04
-118.11
-141.34
-126.8
-107.2
-95.16
-123.28
-147.3
-131.01
-118.46
-112.81
-129.46
-148.2
-145.25
-139.27
-121.55
-121.6
-144.32
-154.27
-147.94
-129.88
-123.33
-133.08
-150.56
-153.12
-127.77
-113.09
-123.35
-146.35
-151.07
-127.35
-116.01
-119.3
-130.2
-131.58
-120.34
-123.23
-125.5
-124.64
-111.47
-102.98
-128.34
-117.89
-108.31
-137.09
-109.75
-96.09
-132.39
-117.92
-96.66
-113.22
-111.66
-94.55
-110.47
-126.5
-97.41
-87.05
-108.34
-101.16
-93.8
-93.02
-86.44
-135.94
-193.91
-170.66
-123.5
-89.66
-51.89
-59.31
-101.55
-92.17
-45.67
-10.52
-31.52
-147.11
-173.42
-61.88
-34.15
-49.68
-40.13
-49.73
-19.88
16.92
8.77
-12.73
-28.07
-52.35
-78.64
-61.13
-37.92
-35.62
-8.59
21.93
23.12
11.01
11.12
22.98
33.1
30.27
19.45
25.34
27.85
23.29
31.8
32.64
32.19
33.47
25.21
23.09
35
42.41
28.4
20.64
26.26
32.01
40.88
33.81
24.1
26.06
29.72
35.04
32.98
31.94
28.66
25.66
28.96
27.93
34.4
27.72
15.16
20.82
34.36
49.87
16.81
-19.88
15.13
47.47
41.66
20.95
4.11
14.83
38.59
45.88
35.26
38.06