time,adc_value
1623,514
1626,514
1634,513
1638,513
1642,512
1650,512
1655,512
1659,512
1663,513
1671,511
1675,511
1679,513
1687,511
1692,498
1696,486
1700,473
1708,466
1712,472
1716,520
1724,580
1728,615
1733,644
1737,649
1745,620
1749,584
1753,554
1757,538
1765,519
1769,500
1774,491
1782,490
1786,486
1790,484
1794,486
1802,489
1807,486
1810,486
1818,490
1823,491
1827,489
1831,491
1839,493
1843,492
1847,489
1855,492
1860,494
1864,492
1868,491
1876,494
1880,495
1884,492
1892,492
1896,495
1900,496
1905,494
1913,495
1917,497
1921,498
1929,497
1933,500
1937,503
1941,503
1950,505
1954,506
1958,507
1966,508
1970,506
1974,505
1978,507
1986,506
1991,505
1995,506
2003,508
2007,508
2011,506
2015,509
2024,508
2027,507
2031,508
2040,513
2044,512
2048,508
2052,509
2060,512
2064,510
2068,507
2077,510
2081,512
2085,508
2089,509
2097,510
2101,509
2105,509
2113,509
2117,510
2122,509
2126,506
2134,508
2138,508
2142,509
2150,508
2154,508
2158,509
2163,510
2171,508
2175,508
2179,512
2187,510
2191,507
2195,509
2199,511
2208,509
2212,508
2216,512
2224,513
2228,509
2232,508
2236,512
2245,509
2249,506
2253,509
2261,511
2265,508
2269,506
2274,506
2281,510
2285,508
2289,507
2298,507
2302,508
2306,508
2310,508
2318,508
2322,510
2326,511
2334,510
2339,513
2343,513
2347,512
2355,511
2359,513
2363,512
2371,510
2376,511
2380,514
2384,510
2392,507
2396,511
2400,512
2408,509
2412,509
2416,511
2421,511
2429,507
2433,508
2437,510
2446,508
2449,506
2453,502
2457,491
2466,476
2470,467
2474,463
2482,484
2486,546
2491,587
2494,626
2502,647
2507,631
2511,598
2519,568
2523,546
2527,524
2531,505
2539,496
2543,488
2547,484
2556,484
2560,485
2564,486
2568,483
2576,485
2580,488
2584,485
2593,485
2597,488
2601,488
2605,485
2613,488
2617,489
2621,489
2629,489
2634,490
2638,492
2642,490
2650,489
2654,489
2658,491
2666,491
2670,490
2675,493
2679,494
2687,494
2691,493
2695,497
2703,500
2708,500
2711,501
2715,503
2724,506
2728,503
2732,502
2740,505
2744,503
2748,500
2752,502
2761,507
2765,503
2769,504
2777,506
2781,508
2785,505
2789,507
2797,509
2801,510
2805,508
2814,509
2818,509
2822,509
2826,507
2834,510
2838,510
2842,511
2850,509
2855,507
2859,509
2863,510
2871,508
2875,509
2879,512
2887,509
2892,508
2896,510
2900,511
2908,508
2912,508
2916,512
2924,512
2928,508
2933,509
2937,513
2945,511
2949,509
2953,512
2961,513
2965,511
2969,510
2973,514
2981,512
2986,512
2990,511
2998,512
3002,512
3006,509
3010,511
3018,511
3022,511
3026,511
3035,509
3039,511
3043,511
3047,509
3055,509
3059,512
3063,509
3071,506
3076,508
3080,510
3084,508
3092,504
3096,508
3100,508
3108,507
3112,510
3117,513
3121,513
3129,512
3133,513
3137,514
3145,514
3149,511
3153,513
3157,513
3165,512
3170,512
3174,512
3182,512
3186,511
3190,511
3194,511
3202,511
3206,509
3210,509
3219,509
3223,510
3227,507
3231,507
3239,503
3243,488
3247,473
3255,467
3260,469
3264,494
3268,556
3276,596
3280,635
3284,644
3292,624
3296,594
3301,563
3305,539
3313,523
3317,507
3321,493
3329,488
3333,487
3337,488
3341,486
3350,486
3354,488
3358,489
3366,489
3370,488
3374,489
3378,491
3387,490
3391,489
3395,492
3403,493
3407,491
3411,490
3415,492
3423,493
3427,491
3432,493
3440,494
3444,494
3448,491
3452,491
3460,496
3464,493
3468,495
3476,500
3481,498
3485,498
3489,499
3497,504
3501,504
3505,503
3513,504
3518,504
3522,502
3526,502
3534,504
3538,504
3542,503
3550,502
3555,503
3559,505
3563,505
3571,505
3575,507
3579,509
3587,506
3591,503
3595,507
3599,508
3608,507
3612,508
3616,510
3624,509
3628,506
3632,507
3636,510
3645,507
3649,508
3653,510
3661,511
3665,508
3669,508
3673,510
3681,510
3685,509
3689,509
3698,510
3702,510
3706,510
3710,510
3718,512
3722,512
3726,510
3735,510
3739,512
3743,512
3747,509
3755,509
3759,512
3763,509
3772,506
3776,510
3780,512
3784,509
3792,507
3796,512
3800,509
3808,507
3813,507
3817,510
3821,508
3829,506
3833,507
3837,508
3845,507
3849,506
3854,506
3858,507
3866,505
3870,504
3874,506
3882,508
3886,508
3890,509
3894,511
3903,511
3907,510
3911,509
3919,512
3923,512
3927,509
3931,508
3940,511
3944,509
3948,507
3956,509
3960,511
3964,508
3968,506
3977,508
3981,508
3985,506
3993,505
3997,507
4001,506
4005,504
4013,506
4017,498
4021,483
4029,468
4034,467
4038,473
4042,511
4050,570
4054,603
4058,631
4066,634
4070,608
4075,578
4079,552
4087,534
4091,516
4095,502
4103,491
4107,484
4111,484
4115,487
4124,484
4128,480
4132,483
4140,486
4144,483
4148,482
4152,486
4161,488
4165,486
4169,487
4177,488
4181,487
4185,485
4189,486
4197,489
4201,491
4206,490
4214,490
4218,489
4222,489
4226,490
4234,492
4238,494
4242,494
4250,495
4255,497
4259,500
4263,500
4271,498
4275,502
4279,504
4287,503
4292,502
4296,503
4300,502
4308,498
4312,499
4316,501
4324,501
4328,499
4333,502
4337,505
4345,501
4349,502
4353,506
4361,505
4365,502
4369,502
4374,503
4382,502
4386,503
4390,503
4398,505
4402,503
4406,503
4410,502
4419,504
4423,505
4427,502
4435,502
4439,505
4443,504
4447,502
4456,505
4460,507
4464,505
4468,504
4476,507
4481,508
4485,505
4493,504
4497,508
4502,506
4505,505
4513,507
4517,509
4522,507
4530,504
4534,507
4538,508
4542,506
4550,506
4554,507
4558,507
4567,507
4571,507
4575,508
4579,509
4587,506
4591,507
4595,508
4603,508
4608,504
4612,504
4616,507
4624,508
4628,503
4632,504
4640,508
4644,509
4649,508
4653,512
4661,512
4665,508
4669,507
4677,511
4681,509
4685,507
4689,509
4698,509
4702,508
4706,506
4714,507
4718,511
4722,508
4726,507
4734,508
4739,508
4743,506
4751,506
4755,506
4759,507
4763,506
4771,493
4775,481
4779,467
4788,462
4792,473
4796,527
4800,584
4808,614
4812,637
4816,634
4825,604
4829,570
4833,548
4837,532
4845,515
4849,500
4853,493
4861,488
4865,483
4869,484
4874,486
4882,486
4887,484
4890,486
4898,486
4902,487
4906,488
4910,486
4919,489
4923,490
4927,489
4935,488
4939,489
4943,488
4947,487
4956,489
4960,492
4964,490
4972,490
4976,492
4980,493
4984,491
4993,491
4996,495
5001,497
5009,495
5013,498
5017,503
5021,502
5029,502
5033,506
5037,508
5046,503
5050,504
5054,506
5058,505
5066,501
5071,503
5074,503
5082,503
5087,504
5091,504
5095,506
5103,506
5107,507
5111,508
5119,509
5123,508
5128,506
5132,507
5140,510
5144,509
5148,507
5156,509
5160,512
5164,508
5169,508
5177,511
5181,511
5185,507
5193,508
5197,511
5201,509
5205,508
5214,510
5218,513
5222,510
5230,511
5234,513
5238,513
5242,510
5251,510
5254,512
5259,513
5267,512
5271,512
5275,512
5279,513
5287,512
5291,510
5295,511
5304,512
5308,511
5312,511
5316,514
5324,513
5328,510
5332,513
5340,515
5345,510
5349,508
5353,511
5361,512
5365,509
5369,508
5377,512
5381,511
5386,512
5390,515
5398,515
5402,513
5406,512
5414,514
5418,513
5423,512
5426,510
5435,512
5439,513
5443,511
5451,510
5455,511
5459,511
5464,512
5472,510
5476,511
5480,512
5488,509
5492,509
5496,514
5500,512
5509,506
5512,495
5517,484
5525,469
5529,461
5533,475
5537,529
5545,582
5549,622
5554,651
5562,645
5566,614
5570,581
5574,555
5582,534
5586,514
5590,500
5599,492
5603,488
5607,485
5611,485
5619,487
5623,487
5627,488
5636,488
5640,490
5644,489
5648,488
5656,491
5660,493
5664,490
5672,489
5676,493
5680,493
5685,490
5693,491
5697,494
5701,492
5709,489
5713,494
5717,495
5721,494
5730,494
5734,498
5738,499
5746,498
5750,500
5754,504
5758,504
5766,505
5771,507
5775,510
5783,508
5787,509
5791,508
5795,509
5803,508
5807,507
5811,508
5820,511
5824,509
5828,506
5832,510
5840,512
5845,509
5848,507
5856,511
5861,512
5865,509
5869,509
5877,512
5881,511
5885,508
5893,511
5898,511
5901,510
5906,509
5914,511
5918,513
5922,510
5930,511
5934,512
5938,513
5943,511
5951,512
5955,511
5959,511
5967,510
5971,510
5975,513
5979,512
5987,511
5992,510
5996,512
6004,512
6008,509
6012,510
6016,513
6024,510
6029,509
6033,511
6041,512
6045,509
6049,509
6053,512
6061,512
6065,509
6070,511
6078,513
6082,513
6086,510
6090,512
6098,513
6103,510
6106,508
6114,508
6119,510
6123,509
6127,508
6135,510
6139,514
6143,513
6151,513
6156,515
6160,515
6164,513
6172,511
6176,511
6180,512
6188,509
6192,512
6196,515
6201,511
6209,510
6213,511
6217,514
6225,510
6229,511
6233,512
6237,512
6245,509
6250,510
6254,512
6262,511
6266,502
6270,489
6274,477
6282,468
6286,466
6291,498
6299,565
6303,603
6307,640
6311,652
6319,632
6323,597
6328,564
6336,542
6340,525
6344,506
6348,494
6356,492
6360,490
6365,487
6372,485
6377,489
6381,488
6385,486
6393,489
6397,493
6401,489
6409,489
6414,492
6418,491
6422,490
6430,491
6434,493
6438,492
6446,491
6451,492
6454,492
6458,492
6467,491
6471,492
6475,494
6483,496
6488,495
6491,495
6495,497
6504,497
6508,496
6512,499
6520,503
6524,502
6528,503
6532,508
6541,508
6545,505
6549,504
6557,508
6561,506
6565,504
6569,506
6577,508
6581,508
6586,505
6594,508
6598,510
6602,508
6606,508
6614,512
6618,511
6622,510
6630,509
6635,510
6639,510
6643,509
6651,508
6655,510
6659,509
6667,509
6672,508
6676,510
6680,511
6688,509
6692,509
6696,512
6704,510
6708,507
6712,510
6717,512
6725,510
6729,509
6733,513
6741,513
6745,510
6750,511
6753,513
6762,511
6766,509
6770,510
6778,512
6782,510
6786,511
6790,512
6798,511
6802,510
6807,508
6815,511
6819,513
6823,511
6827,510
6835,511
6839,511
6843,512
6851,511
6856,512
6860,512
6864,509
6872,508
6876,510
6880,511
6888,509
6893,509
6897,512
6901,513
6909,513
6913,515
6917,516
6925,513
6930,515
6934,517
6938,516
6946,512
6950,513
6954,517
6962,513
6966,512
6970,512
6975,516
6983,513
6987,512
6991,513
6999,514
7003,511
7007,510
7012,512
7020,511
7024,510
7028,505
7036,492
7040,481
7044,470
7048,465
7056,489
7060,550
7064,588
7072,626
7076,650
7081,634
7085,599
7093,570
7097,548
7101,526
7109,508
7113,497
7117,490
7122,488
7130,487
7134,489
7138,488
7146,488
7150,489
7154,491
7158,490
7166,491
7171,492
7175,491
7183,492
7187,491
7191,489
7195,494
7203,494
7207,493
7212,493
7220,493
7224,492
7228,492
7232,495
7240,498
7244,497
7248,496
7256,498
7261,498
7265,496
7269,496
7277,500
7281,499
7285,497
7293,502
7298,506
7302,504
7306,501
7314,503
7318,505
7322,503
7330,503
7334,505
7339,506
7343,503
7351,504
7355,506
7359,507
7367,505
7371,504
7375,506
7380,504
7388,501
7392,503
7396,507
7404,505
7408,500
7412,505
7416,506
7425,501
7429,498
7433,504
7437,503
7445,500
7449,501
7453,503
7462,502
7466,497
7470,500
7474,505
7482,501
7486,497
7490,500
7498,501
7502,499
7506,499
7511,502
7519,503
7523,501
7527,500
7535,504
7539,505
7543,502
7547,500
7556,505
7560,505
7564,500
7572,502
7576,505
7580,503
7584,499
7592,504
7597,505
7601,501
7609,499
7613,504
7617,503
7621,499
7629,500
7633,503
7638,501
7646,498
7650,502
7654,509
7658,505
7666,504
7670,507
7674,510
7683,508
7687,505
7691,505
7695,507
7703,508
7707,507
7711,508
7719,507
7723,505
7728,503
7732,509
7740,511
7744,503
7748,501
7756,507
7760,507
7764,501
7769,504
7777,510
7781,500
7785,484
7793,475
7797,469
7801,467
7805,500
7814,565
7818,600
7822,631
7830,639
7834,621
7838,589
7842,561
7850,539
7855,526
7859,509
7867,494
7871,490
7875,490
7879,490
7887,487
7891,489
7896,489
7904,486
7908,484
7912,487
7916,490
7924,488
7928,489
7932,494
7941,492
7945,486
7949,488
7953,494
7961,491
7965,487
7969,492
7977,497
7982,493
7986,492
7990,496
7998,496
8002,495
8006,495
8014,497
8019,498
8023,498
8027,500
8035,504
8039,505
8043,503
8052,505
8056,506
8060,502
8065,501
8072,503
8076,506
8080,503
8089,500
8093,501
8097,503
8101,500
8109,498
8113,502
8117,504
8125,499
8129,501
8133,506
8138,502
8146,499
8150,500
8154,504
8162,501
8166,498
8170,503
8175,505
8183,502
8187,501
8191,504
8199,505
8203,503
8207,502
8211,506
8220,506
8223,503
8228,503
8236,507
8240,506
8245,504
8248,504
8257,508
8261,507
8264,502
8273,504
8277,510
8281,505
8285,503
8293,507
8297,509
8301,505
8309,504
8314,509
8318,509
8322,505
8330,505
8334,507
8338,505
8346,503
8351,508
8354,510
8359,507
8367,506
8371,512
8375,515
8383,512
8387,510
8392,513
8396,515
8404,512
8408,509
8412,511
8420,514
8424,511
8428,510
8433,513
8441,513
8445,509
8449,511
8457,514
8461,511
8465,508
8469,511
8478,515
8482,510
8486,509
8494,513
8499,502
8502,481
8506,466
8514,466
8519,473
8523,519
8531,584
8535,626
8539,654
8543,649
8551,619
8555,589
8559,559
8568,540
8572,524
8576,512
8580,499
8588,489
8592,489
8596,493
8605,489
8609,486
8613,491
8617,493
8625,490
8629,491
8633,497
8641,495
8646,491
8650,493
8654,497
8662,495
8666,491
8670,495
8678,497
8682,493
8686,491
8691,494
8699,494
8703,492
8707,493
8715,495
8719,494
8724,491
8727,494
8736,497
8740,498
8744,496
8752,501
8756,507
8760,505
8764,504
8772,506
8776,510
8780,508
8789,504
8793,506
8797,511
8801,507
8809,505
8813,512
8818,511
8826,506
8830,508
8834,513
8838,512
8846,509
8850,514
8854,516
8863,514
8867,513
8871,517
8875,518
8883,517
8887,515
8891,520
8899,522
8903,519
8908,519
8912,522
8920,524
8924,521
8928,521
8936,523
8940,523
8944,521
8949,520
8957,524
8961,523
8965,518
8973,523
8977,526
8981,523
8985,521
8993,526
8998,526
9002,519
9010,519
9014,525
9018,523
9022,518
9030,520
9034,522
9038,521
9046,517
9050,522
9054,521
9059,517
9067,518
9071,522
9075,526
9083,522
9087,522
9091,524
9096,524
9104,523
9108,521
9112,522
9120,523
9124,522
9128,521
9132,527
9140,527
9144,521
9149,522
9157,525
9161,525
9165,521
9169,523
9177,526
9181,522
9186,521
9194,522
9198,514
9202,499
9206,485
9214,478
9218,481
9222,517
9230,579
9235,616
9239,654
9243,662
9251,636
9255,602
9259,570
9267,547
9272,526
9276,511
9280,498
9288,492
9292,492
9296,493
9304,490
9308,488
9313,492
9317,492
9325,489
9329,490
9333,494
9341,494
9345,490
9350,490
9354,492
9362,490
9366,489
9370,491
9378,490
9382,489
9386,488
9390,490
9399,490
9403,490
9407,491
9415,491
9419,492
9423,492
9427,494
9435,497
9439,499
9443,500
9452,501
9456,503
9460,504
9464,502
9472,503
9476,504
9480,503
9489,500
9493,501
9497,502
9501,501
9509,500
9513,504
9518,503
9526,501
9530,502
9534,505
9538,504
9547,503
9551,505
9555,506
9563,505
9567,505
9571,509
9575,510
9583,511
9587,512
9592,513
9599,513
9604,515
9608,514
9612,514
9620,516
9624,515
9628,516
9636,515
9641,518
9645,517
9649,516
9657,517
9661,516
9665,516
9673,516
9678,518
9682,517
9686,515
9694,519
9698,518
9702,517
9710,516
9714,517
9719,513
9723,510
9731,509
9735,508
9739,504
9747,503
9751,503
9755,502
9759,499
9768,497
9772,497
9776,497
9784,497
9788,496
9792,495
9796,496
9805,495
9809,494
9813,493
9820,491
9825,489
9829,489
9833,493
9841,493
9845,492
9850,496
9857,500
9862,501
9866,505
9870,509
9878,512
9882,514
9886,522
9894,526
9899,533
9903,542
9907,549
9915,544
9920,538
9923,530
9931,531
9936,543
9940,593
9944,656
9952,692
9956,724
9960,725
9968,697
9972,662
9976,636
9981,616
9989,604
9993,596
9997,595
10005,595
10009,598
10013,604
10017,609
10026,612
10030,613
10034,616
10042,619
10046,621
10050,623
10054,623
10062,620
10067,618
10071,616
10078,615
10083,612
10088,608
10091,605
10099,603
10103,602
10107,596
10115,596
10120,595
10124,593
10128,590
10136,589
10140,590
10144,588
10152,587
10157,588
10161,588
10165,586
10173,587
10177,586
10181,583
10189,578
10194,576
10198,574
10202,570
10210,567
10214,566
10218,564
10226,560
10230,558
10234,557
10239,554
10247,553
10251,550
10255,547
10263,547
10267,545
10272,542
10275,543
10284,542
10288,540
10292,535
10300,537
10304,537
10308,531
10312,528
10320,527
10325,519
10329,507
10333,498
10341,492
10345,475
10349,460
10357,446
10362,430
10366,419
10370,409
10378,398
10382,389
10386,386
10394,382
10398,383
10402,385
10406,386
10415,389
10419,390
10423,393
10431,395
10435,396
10439,396
10443,397
10452,397
10456,400
10460,406
10468,410
10472,413
10476,417
10480,422
10488,428
10492,431
10497,438
10505,441
10509,446
10513,453
10517,456
10525,457
10529,460
10533,466
10542,466
10546,465
10550,469
10554,468
10562,467
10566,466
10570,466
10578,468
10583,472
10587,477
10591,480
10599,483
10603,486
10607,485
10615,487
10619,488
10624,487
10628,486
10636,483
10640,477
10644,465
10652,447
10656,429
10660,422
10664,423
10673,452
10677,512
10681,545
10689,563
10693,565
10697,547
10701,519
10709,497
10714,482
10718,473
10726,460
10730,448
10734,442
10738,437
10746,435
10751,437
10755,439
10763,443
10767,448
10771,446
10775,445
10783,449
10787,451
10791,453
10800,457
10804,464
10808,468
10812,469
10820,470
10824,469
10828,468
10836,469
10841,471
10845,467
10849,465
10857,469
10861,475
10865,482
10873,490
10877,495
10881,501
10886,508
10894,512
10898,514
10902,518
10910,525
10914,523
10918,519
10922,515
10931,513
10935,513
10939,512
10947,510
10951,509
10955,509
10959,512
10967,512
10972,508
10976,508
10984,506
10988,501
10992,500
10996,504
11004,502
11008,497
11012,490
11021,491
11025,489
11029,493
11033,496
11041,494
11045,492
11049,492
11057,493
11061,494
11066,496
11070,497
11078,497
11082,494
11086,491
11094,486
11098,487
11102,494
11106,495
11114,495
11119,498
11123,501
11131,503
11135,507
11139,515
11143,518
11151,520
11155,524
11159,529
11168,531
11172,535
11176,538
11180,539
11188,537
11192,539
11196,535
11205,536
11209,540
11213,542
11217,539
11225,538
11229,539
11233,542
11241,542
11245,541
11250,541
11254,539
11262,538
11266,537
11270,536
11278,537
11282,538
11287,537
11291,535
11299,536
11303,537
11307,534
11315,533
11319,531
11324,530
11327,530
11336,531
11340,528
11344,522
11352,521
11356,510
11360,493
11364,475
11373,470
11377,471
11381,499
11389,568
11393,613
11397,629
11401,624
11409,598
11413,562
11418,534
11426,516
11430,505
11434,489
11438,471
11446,464
11450,461
11454,455
11463,447
11467,442
11471,436
11475,433
11483,426
11487,423
11491,422
11499,421
11503,420
11508,417
11512,421
11520,418
11524,416
11528,418
11537,421
11541,422
11545,425
11549,431
11557,432
11561,429
11565,431
11574,439
11578,438
11582,439
11586,445
11594,450
11598,451
11602,452
11610,456
11614,459
11618,457
11622,458
11630,461
11635,461
11639,458
11647,457
11651,461
11655,460
11659,461
11667,460
11671,465
11676,467
11684,464
11688,470
11692,473
11696,471
11704,469
11708,473
11712,477
11721,473
11725,473
11729,477
11733,477
11741,472
11745,476
11749,483
11757,483
11762,482
11766,486
11770,490
11778,489
11782,485
11786,487
11794,487
11798,483
11803,482
11807,480
11815,480
11819,477
11823,477
11831,480
11835,483
11839,482
11843,480
11852,483
11856,485
11860,479
11868,477
11872,481
11876,479
11880,474
11889,477
11893,480
11897,478
11905,474
11909,478
11913,480
11917,476
11925,477
11929,484
11934,484
11942,484
11946,485
11950,489
11954,490
11962,488
11966,489
11970,494
11978,494
11983,494
11987,496
11991,499
12000,497
12004,498
12008,500
12016,502
12020,499
12024,497
12028,501
12036,503
12041,500
12045,500
12053,503
12057,490
12061,468
12065,455
12073,452
12078,457
12082,503
12089,572
12094,612
12098,635
12102,628
12110,600
12114,565
12118,533
12126,515
12131,499
12135,484
12139,473
12147,469
12151,470
12155,469
12163,466
12167,465
12172,468
12176,467
12184,463
12188,463
12192,465
12200,462
12205,460
12208,465
12213,469
12221,465
12225,465
12229,471
12237,473
12241,469
12245,473
12249,480
12258,480
12262,479
12266,485
12274,491
12278,492
12282,494
12286,499
12294,505
12299,506
12303,510
12311,514
12315,517
12319,516
12323,516
12331,519
12335,518
12340,515
12347,513
12352,514
12356,513
12360,509
12368,509
12372,514
12376,513
12384,509
12389,513
12393,518
12397,515
12405,512
12409,518
12413,521
12421,516
12425,518
12430,520
12434,518
12442,512
12446,514
12450,517
12458,515
12463,512
12466,516
12471,517
12479,516
12483,514
12487,516
12495,519
12499,520
12503,520
12507,522
12516,518
12520,510
12524,509
12532,511
12536,512
12540,505
12544,504
12553,508
12557,505
12561,498
12568,500
12573,503
12577,500
12581,498
12589,503
12593,504
12598,500
12605,499
12610,502
12614,504
12618,501
12626,502
12630,506
12634,508
12642,509
12646,512
12650,516
12655,516
12663,516
12667,518
12671,519
12679,515
12683,512
12687,513
12691,518
12699,516
12703,513
12708,516
12716,520
12720,518
12724,520
12728,526
12736,526
12740,522
12744,522
12753,528
12757,525
12761,520
12765,515
12773,504
12777,487
12781,478
12789,487
12794,531
12798,592
12802,628
12810,662
12814,663
12818,634
12826,599
12830,569
12834,550
12839,530
12847,514
12851,506
12855,500
12863,495
12867,494
12871,498
12876,494
12884,488
12888,491
12892,493
12900,487
12904,483
12908,488
12912,487
12921,481
12925,480
12929,484
12937,485
12942,482
12946,488
12950,491
12958,487
12962,481
12966,482
12974,482
12978,479
12982,480
12986,482
12995,484
12999,485
13003,485
13011,489
13015,493
13019,492
13023,493
13031,498
13035,502
13039,497
13047,498
13052,500
13056,500
13060,496
13068,499
13072,504
13076,503
13084,503
13088,508
13093,511
13097,507
13105,507
13109,509
13113,507
13121,503
13125,503
13130,505
13134,505
13142,501
13146,503
13150,504
13158,503
13162,504
13166,506
13170,507
13179,505
13183,505
13187,507
13195,510
13199,510
13203,509
13207,513
13215,515
13220,514
13224,512
13232,518
13236,518
13240,515
13244,518
13252,522
13256,520
13260,518
13268,521
13273,521
13277,518
13281,517
13289,519
13293,520
13297,517
13305,517
13310,521
13314,523
13318,520
13326,520
13330,522
13334,522
13338,519
13346,519
13351,522
13355,520
13363,518
13367,521
13371,524
13375,522
13383,519
13387,521
13392,526
13400,520
13404,517
13408,520
13412,518
13420,514
13424,513
13428,516
13436,515
13441,511
13445,512
13449,515
13457,512
13461,511
13465,513
13473,516
13478,511
13482,511
13486,512
13494,511
13498,502
13502,487
13511,475
13515,466
13519,463
13523,488
13531,557
13535,598
13539,632
13547,646
13551,630
13555,597
13559,559
13568,541
13572,524
13576,504
13584,490
13588,489
13592,488
13596,483
13604,485
13609,489
13613,491
13621,488
13625,490
13629,494
13633,494
13641,493
13645,496
13649,498
13658,497
13662,496
13666,497
13670,500
13678,498
13682,496
13686,498
13695,499
13699,498
13703,497
13707,501
13715,505
13719,503
13723,503
13731,508
13735,511
13740,509
13744,513
13752,519
13756,519
13760,517
13768,522
13772,525
13776,521
13781,519
13789,522
13793,523
13797,519
13805,518
13809,519
13813,518
13817,517
13826,518
13830,519
13834,517
13842,517
13846,518
13850,520
13854,518
13862,515
13866,515
13871,518
13879,512
13883,511
13887,513
13891,516
13899,511
13903,509
13908,512
13916,511
13920,507
13924,507
13928,510
13936,507
13940,505
13944,507
13953,511
13957,507
13961,506
13965,509
13973,507
13977,502
13981,501
13990,502
13994,501
13998,499
14002,499
14010,502
14014,502
14018,499
14026,499
14030,503
14035,504
14039,503
14047,502
14051,507
14055,506
14063,503
14067,505
14071,508
14076,504
14084,503
14088,508
14092,510
14100,507
14104,506
14108,513
14112,514
14120,515
14124,519
14129,521
14137,521
14141,523
14145,526
14149,529
14157,528
14161,527
14165,529
14174,528
14178,524
14182,521
14186,521
14194,521
14198,517
14203,517
14211,517
14215,518
14219,514
14223,515
14231,519
14235,519
14239,515
14247,507
14252,498
14256,481
14260,471
14268,479
14272,518
14276,580
14284,615
14288,651
14292,653
14296,624
14305,592
14309,565
14313,544
14321,521
14325,506
14329,495
14333,487
14342,485
14346,487
14350,489
14358,486
14362,485
14366,488
14370,489
14378,486
14383,486
14387,488
14395,490
14399,486
14403,486
14407,490
14415,490
14419,484
14424,483
14432,487
14436,482
14440,476
14444,478
14452,481
14456,478
14460,478
14468,483
14473,486
14477,484
14481,488
14489,492
14493,494
14497,494
14505,497
14509,501
14514,502
14518,501
14526,500
14530,502
14534,501
14542,500
14546,502
14550,506
14554,507
14563,505
14567,509
14571,514
14579,513
14583,513
14587,518
14591,521
14600,517
14604,518
14608,524
14616,526
14620,522
14624,522
14628,527
14637,524
14641,522
14645,527
14653,530
14657,528
14661,528
14665,533
14673,534
14677,531
14681,532
14690,535
14694,536
14698,533
14702,534
14710,537
14714,537
14718,537
14727,534
14731,536
14735,533
14739,530
14747,530
14752,532
14756,527
14764,524
14768,526
14772,527
14776,521
14785,519
14789,523
14793,522
14801,517
14805,516
14809,520
14813,517
14822,513
14825,515
14829,517
14837,513
14842,510
14846,515
14850,517
14858,516
14862,516
14866,517
14874,515
14879,511
14883,507
14887,507
14895,506
14899,504
14903,505
14911,507
14915,508
14920,505
14924,500
14932,499
14936,496
14940,494
14948,497
14952,502
14956,499
14961,499
14969,504
14973,504
14977,490
14985,476
14989,465
14994,459
14997,465
15005,516
15009,584
15014,623
15021,654
15026,652
15030,625
15034,591
15042,561
15046,543
15050,525
15058,508
15062,498
15066,493
15071,494
15079,489
15083,485
15087,489
15095,487
15099,483
15103,482
15107,488
15116,488
15120,485
15124,487
15132,492
15136,492
15140,488
15144,492
15153,495
15157,490
15161,489
15169,493
15173,496
15177,492
15181,493
15189,497
15193,496
15198,494
15206,498
15210,504
15214,502
15218,502
15226,505
15230,508
15234,509
15243,510
15247,512
15251,514
15255,512
15263,507
15267,509
15271,511
15279,508
15283,506
15288,509
15292,512
15300,506
15304,509
15308,514
15316,513
15320,508
15324,509
15328,508
15337,504
15341,501
15345,504
15353,504
15357,501
15361,500
15365,504
15374,505
15378,501
15382,503
15390,506
15394,507
15398,506
15402,506
15410,509
15414,510
15419,509
15427,512
15431,513
15435,514
15439,510
15447,512
15451,513
15455,514
15464,512
15468,517
15472,520
15476,516
15484,516
15488,521
15492,521
15500,516
15505,517
15509,522
15513,519
15521,515
15525,518
15529,519
15537,515
15541,513
15546,515
15550,513
15558,511
15562,511
15566,514
15574,514
15578,510
15582,512
15587,517
15595,519
15599,516
15603,515
15611,519
15615,521
15619,517
15623,516
15632,520
15636,518
15640,514
15648,517
15652,519
15656,515
15660,514
15668,517
15673,517
15677,512
15685,510
15689,513
15693,511
15697,508
15705,509
15709,512
15714,505
15722,490
15726,478
15730,468
15734,461
15742,479
15746,539
15750,582
15758,617
15763,636
15767,627
15771,594
15779,557
15783,533
15787,516
15795,499
15799,483
15804,479
15808,480
15816,479
15820,476
15824,478
15832,482
15836,481
15840,479
15845,486
15853,488
15857,486
15861,487
15869,493
15873,494
15877,490
15881,493
15890,496
15894,494
15898,495
15906,499
15910,500
15914,497
15918,498
15927,499
15931,503
15935,503
15943,501
15947,504
15951,507
15955,507
15964,507
15968,510
15972,514
15980,513
15985,513
15988,518
15992,516
16001,511
16005,512
16009,515
16017,513
16021,510
16025,515
16029,518
16038,515
16042,514
16046,518
16053,519
16058,516
16062,516
16066,519
16074,517
16079,514
16083,515
16090,516
16095,514
16099,513
16103,514
16111,517
16115,516
16120,513
16127,513
16132,515
16136,512
16140,509
16148,513
16152,514
16156,509
16164,507
16169,509
16173,511
16177,503
16185,504
16189,507
16193,503
16201,499
16206,501
16209,504
16214,501
16222,501
16226,503
16230,503
16234,501
16242,502
16246,506
16251,506
16259,505
16263,505
16267,507
16271,507
16279,505
16283,504
16287,505
16296,506
16300,504
16304,507
16308,511
16316,513
16320,510
16324,516
16332,522
16337,521
16341,521
16345,527
16353,531
16357,525
16361,520
16369,518
16373,514
16377,510
16382,513
16390,517
16394,513
16398,510
16406,508
16410,511
16414,508
16418,508
16427,511
16431,514
16435,511
16443,510
16447,510
16451,502
16455,489
16463,477
16468,475
16472,487
16480,532
16484,584
16488,622
16492,649
16500,644
16504,616
16508,586
16517,556
16521,536
16525,522
16529,508
16537,496
16541,489
16546,489
16554,487
16558,482
16562,483
16566,486
16574,484
16578,481
16582,483
16590,486
16595,483
16598,482
16602,484
16611,484
16615,480
16619,476
16627,477
16632,478
16635,475
16640,471
16648,472
16652,473
16656,471
16664,472
16668,477
16672,479
16676,476
16685,478
16689,483
16693,484
16701,480
16705,486
16709,493
16714,492
16721,492
16726,496
16730,499
16738,498
16742,497
16746,502
16750,501
16758,499
16763,502
16767,505
16775,505
16779,504
16783,506
16787,506
16795,503
16799,503
16803,504
16812,509
16816,507
16820,504
16824,505
16832,508
16836,507
16840,506
16848,509
16852,512
16857,509
16861,509
16869,513
16873,512
16877,508
16885,509
16889,513
16894,510
16898,506
16906,511
16910,512
16914,508
16922,507
16926,511
16930,513
16935,508
16943,510
16947,511
16951,511
16959,508
16963,507
16967,508
16971,507
16979,504
16984,504
16988,506
16996,505
17000,500
17004,501
17008,502
17016,499
17021,496
17025,499
17033,499
17037,495
17041,493
17045,496
17053,496
17057,492
17061,495
17070,499
17074,498
17078,493
17082,493
17090,497
17094,495
17098,495
17107,497
17111,499
17115,499
17119,499
17127,502
17131,504
17135,503
17143,505
17147,506
17152,509
17156,509
17164,510
17168,509
17172,497
17180,479
17184,470
17188,472
17192,492
17201,552
17205,596
17209,632
17217,641
17221,625
17225,597
17229,569
17238,542
17242,526
17246,514
17254,499
17258,494
17262,492
17266,495
17274,492
17278,491
17283,492
17291,493
17295,492
17299,490
17303,493
17311,493
17315,491
17319,489
17327,492
17331,493
17336,493
17340,492
17348,496
17352,498
17357,493
17364,494
17368,498
17373,498
17377,494
17385,493
17389,498
17393,496
17402,492
17405,497
17410,498
17414,495
17422,495
17426,503
17430,503
17438,499
17442,498
17446,501
17450,499
17459,495
17463,495
17467,495
17475,495
17479,493
17483,494
17487,495
17495,495
17500,495
17504,498
17512,501
17516,500
17520,499
17524,501
17532,504
17537,502
17541,502
17549,508
17553,509
17557,506
17561,507
17569,512
17573,512
17577,509
17585,512
17590,515
17594,512
17598,511
17606,515
17610,517
17614,513
17623,515
17627,518
17631,518
17635,515
17643,515
17647,517
17651,518
17659,515
17663,515
17667,518
17672,518
17680,515
17684,517
17688,520
17696,520
17700,517
17704,518
17709,522
17717,521
17721,515
17725,519
17733,520
17737,515
17741,515
17745,521
17753,520
17758,517
17762,520
17770,522
17774,519
17778,515
17782,516
17790,519
17795,515
17799,513
17807,515
17811,515
17815,511
17819,510
17827,511
17831,510
17835,507
17844,504
17848,504
17852,503
17856,501
17864,500
17868,496
17872,480
17880,461
17885,454
17889,456
17893,477
17901,540
17905,587
17909,624
17917,635
17921,615
17925,587
17930,559
17938,533
17942,518
17946,506
17954,491
17958,480
17962,479
17967,483
17975,481
17979,480
17983,485
17991,488
17995,489
17999,490
18003,492
18011,496
18016,500
18020,498
18028,503
18032,505
18036,507
18040,509
18049,509
18052,505
18056,499
18065,499
18069,502
18073,501
18077,495
18085,496
18089,499
18093,497
18102,495
18106,500
18110,504
18114,501
18122,503
18126,509
18130,512
18138,510
18143,512
18147,514
18151,510
18159,506
18163,507
18167,509
18175,508
18180,508
18184,509
18188,511
18196,507
18200,507
18204,508
18212,510
18216,508
18220,505
18225,507
18233,508
18237,504
18241,502
18249,504
18253,504
18257,500
18261,500
18270,504
18274,505
18278,501
18286,503
18290,503
18294,498
18299,496
18306,501
18310,502
18315,496
18322,494
18327,495
18331,493
18335,488
18343,491
18347,495
18351,496
18359,496
18364,499
18368,503
18372,503
18380,502
18384,505
18388,510
18396,508
18401,504
18405,508
18409,512
18417,510
18421,507
18425,512
18433,514
18437,513
18441,514
18446,518
18454,521
18458,519
18462,525
18470,532
18474,533
18479,525
18483,523
18491,526
18495,522
18499,519
18507,519
18511,515
18515,511
18519,509
18528,512
18532,510
18536,509
18544,509
18548,514
18552,514
18556,510
18564,501
18568,489
18573,475
18581,468
18585,480
18589,535
18593,589
18601,624
18605,657
18609,656
18617,621
18622,585
18626,560
18630,541
18638,517
18642,502
18646,499
18654,493
18659,489
18663,491
18667,494
18675,489
18679,488
18683,490
18691,491
18696,488
18700,486
18704,487
18712,484
18716,482
18720,482
18728,485
18732,486
18736,482
18740,479
18749,479
18753,477
18757,472
18765,472
18769,476
18773,475
18777,477
18786,479
18790,486
18794,486
18802,486
18806,494
18810,497
18814,497
18822,499
18826,504
18831,506
18838,502
18843,505
18847,508
18851,506
18859,505
18863,508
18867,512
18875,511
18880,510
18884,515
18888,519
18896,518
18900,519
18904,524
18912,530
18917,526
18921,522
18924,523
18933,522
18937,519
18941,518
18949,519
18953,517
18957,511
18961,509
18970,513
18973,512
18978,509
18986,515
18990,518
18994,515
18998,514
19006,517
19011,518
19015,514
19022,515
19027,518
19031,518
19035,514
19043,517
19047,519
19051,517
19059,516
19064,518
19068,520
19072,519
19080,518
19084,518
19088,518
19096,515
19100,512
19105,516
19109,517
19117,514
19121,510
19125,514
19133,516
19137,511
19141,510
19145,512
19154,509
19158,505
19162,506
19170,506
19174,500
19178,499
19182,501
19190,500
19195,494
19199,491
19203,496
19211,496
19215,494
19219,496
19227,501
19231,500
19236,501
19240,503
19248,505
19252,503
19256,491
19264,481
19268,470
19272,465
19277,477
19285,535
19289,588
19293,624
19301,652
19305,649
19309,622
19313,585
19322,561
19326,549
19330,534
19338,515
19342,507
19346,507
19350,503
19358,497
19362,500
19367,501
19375,496
19379,495
19383,493
19387,492
19395,488
19399,487
19403,491
19412,492
19416,491
19420,492
19424,496
19432,496
19436,495
19440,495
19448,498
19453,498
19457,497
19461,498
19469,500
19473,500
19477,499
19485,502
19489,505
19494,505
19498,504
19506,508
19510,510
19514,508
19522,509
19526,512
19530,509
19534,504
19543,506
19547,508
19551,503
19559,499
19563,501
19567,501
19571,496
19579,495
19584,497
19588,497
19596,493
19600,496
19604,497
19608,497
19616,494
19620,494
19625,498
19633,499
19637,499
19641,501
19645,505
19653,506
19657,503
19661,505
19670,509
19674,510
19678,505
19682,510
19690,513
19694,511
19698,511
19706,517
19711,520
19715,515
19719,518
19727,523
19731,523
19735,521
19743,524
19747,528
19751,524
19756,519
19764,519
19768,517
19772,513
19780,511
19784,513
19788,513
19792,509
19801,508
19805,510
19809,512
19817,512
19821,510
19825,512
19829,514
19838,512
19842,514
19846,518
19854,519
19858,515
19862,516
19866,519
19874,514
19879,512
19883,516
19891,519
19895,513
19900,511
19904,515
19912,514
19916,512
19920,512
19928,514
19932,513
19936,511
19940,511
19949,512
19953,509
19957,505
19965,496
19969,482
19974,466
19977,459
19986,469
19990,517
19994,569
20002,602
20006,632
20010,630
20014,595
20022,561
20026,537
20031,516
20039,494
20043,485
20047,480
20051,476
20059,476
20063,481
20067,486
20076,484
20080,487
20084,492
20088,492
20096,490
20100,489
20104,495
20112,497
20117,497
20121,500
20125,502
20133,500
20137,499
20141,500
20149,502
20154,501
20158,498
20162,499
20170,501
20174,497
20178,498
20186,500
20190,501
20194,496
20198,495
20207,501
20211,503
20215,500
20223,504
20227,507
20232,508
20235,506
20244,507
20248,511
20252,508
20260,505
20264,511
20268,512
20272,509
20280,510
20285,514
20289,513
20297,511
20301,512
20305,512
20309,514
20317,511
20321,513
20325,514
20334,512
20338,508
20342,507
20346,509
20354,507
20358,503
20362,503
20370,505
20374,501
20379,497
20383,500
20391,503
20395,499
20399,497
20407,502
20411,501
20416,493
20420,494
20428,499
20432,498
20436,496
20444,500
20448,505
20452,503
20457,502
20465,507
20469,509
20473,509
20481,508
20485,512
20489,515
20493,515
20501,515
20506,516
20510,513
20518,509
20522,508
20526,511
20530,511
20538,507
20543,508
20547,511
20555,511
20559,510
20563,512
20567,514
20575,510
20579,508
20583,511
20591,512
20596,510
20600,510
20604,516
20612,513
20616,510
20620,513
20628,515
20633,512
20637,510
20641,513
20649,513
20653,510
20657,509
20665,512
20669,512
20674,508
20678,496
20686,487
20690,477
20694,473
20702,487
20706,542
20710,591
20714,618
20723,640
20727,636
20731,608
20739,574
20743,550
20747,534
20751,511
20759,495
20764,489
20768,484
20776,478
20780,476
20784,479
20788,478
20796,472
20801,471
20805,473
20813,470
20817,468
20821,472
20825,477
20833,476
20837,476
20841,480
20849,484
20854,482
20858,485
20862,489
20870,494
20874,492
20878,491
20886,493
20890,497
20895,498
20899,498
20907,500
20911,502
20915,503
20923,504
20927,507
20931,505
20936,504
20944,509
20948,513
20952,508
20960,502
20964,503
20968,501
20972,498
20981,498
20985,502
20989,501
20997,499
21001,501
21005,504
21010,504
21017,502
21022,504
21026,507
21034,505
21038,504
21042,504
21046,507
21054,506
21058,507
21063,509
21071,511
21075,509
21079,508
21083,513
21091,514
21095,513
21099,514
21107,517
21112,517
21116,511
21120,512
21128,515
21132,511
21136,507
21144,508
21149,510
21153,506
21157,505
21165,509
21169,507
21174,502
21181,501
21185,505
21189,504
21194,501
21202,498
21206,498
21210,496
21218,494
21222,495
21226,499
21230,500
21239,499
21243,504
21247,508
21255,509
21259,508
21263,512
21267,516
21275,514
21280,513
21284,516
21292,517
21296,513
21300,513
21304,516
21312,514
21317,509
21321,512
21328,514
21333,509
21337,507
21341,510
21349,510
21353,506
21357,504
21365,506
21370,504
21374,504
21378,503
21386,504
21390,498
21394,483
21402,471
21407,468
21411,470
21415,497
21423,564
21427,606
21431,635
21439,644
21443,624
21447,593
21452,562
21460,539
21464,527
21468,512
21476,497
21480,488
21484,490
21489,488
21497,483
21501,485
21505,489
21513,486
21517,484
21521,486
21526,488
21533,487
21538,484
21542,487
21550,487
21554,485
21558,482
21562,483
21570,483
21575,482
21579,480
21587,481
21591,480
21595,476
21599,477
21607,482
21611,482
21615,483
21623,485
21628,493
21632,495
21636,495
21644,501
21648,509
21652,512
21660,510
21665,513
21669,513
21673,507
21681,505
21685,508
21689,507
21697,502
21701,505
21705,509
21710,506
21718,503
21722,505
21726,508
21734,505
21738,503
21742,503
21747,503
21755,501
21759,500
21763,504
21771,504
21775,503
21779,502
21783,506
21791,507
21796,507
21800,507
21807,510
21812,511
21816,506
21820,508
21828,512
21833,509
21837,508
21844,509
21849,513
21853,508
21857,507
21865,513
21869,513
21874,509
21881,510
21886,514
21890,512
21894,510
21902,512
21906,515
21910,512
21918,512
21923,512
21926,511
21931,507
21939,502
21943,503
21947,502
21955,499
21959,498
21963,500
21967,498
21976,493
21980,492
21984,497
21992,499
21996,496
22000,499
22004,504
22013,504
22017,502
22021,502
22029,508
22033,506
22037,506
22041,514
22050,518
22054,516
22058,517
22065,520
22070,516
22074,515
22078,515
22086,518
22090,514
22095,512
22099,514
22107,512
22111,497
22115,482
22123,472
22127,467
22131,480
22136,537
22144,588
22148,626
22152,648
22160,634
22164,606
22168,573
22172,546
22181,525
22185,509
22189,496
22197,485
22201,484
22205,488
22209,487
22217,481
22222,485
22226,488
22234,485
22238,486
22242,491
22246,491
22254,488
22258,490
22263,492
22271,491
22275,491
22279,491
22283,494
22291,492
22295,492
22299,493
22308,496
22312,494
22316,491
22320,491
22328,491
22332,490
22336,486
22344,489
22348,492
22353,490
22357,488
22365,491
22369,490
22373,485
22381,484
22385,488
22390,489
22394,487
22402,491
22406,496
22410,493
22418,495
22422,499
22426,503
22430,503
22439,504
22443,510
22447,511
22455,511
22459,514
22463,516
22467,518
22475,516
22479,516
22484,518
22492,518
22496,516
22500,514
22504,516
22512,515
22516,510
22520,513
22529,514
22533,512
22537,507
22541,509
22549,511
22553,505
22557,503
22566,506
22570,507
22574,502
22578,504
22586,510
22590,508
22594,506
22602,508
22606,512
22611,507
22615,507
22623,513
22627,514
22631,510
22639,512
22643,513
22648,514
22652,511
22660,512
22664,513
22668,512
22676,510
22680,511
22685,511
22688,510
22697,504
22701,504
22705,508
22713,506
22717,505
22721,506
22725,510
22734,508
22738,504
22742,507
22750,506
22754,501
22758,498
22762,500
22770,499
22774,493
22779,496
22787,499
22791,499
22795,497
22799,501
22807,505
22811,504
22815,503
22824,507
22828,510
22832,509
22836,508
22844,498
22848,487
22852,476
22860,470
22864,494
22869,557
22873,597
22881,632
22885,656
22889,639
22897,603
22901,571
22905,550
22909,529
22918,506
22922,498
22926,493
22934,485
22938,481
22942,484
22946,485
22954,481
22958,483
22962,486
22971,486
22975,484
22979,486
22983,490
22991,489
22995,488
22999,491
23007,493
23011,492
23016,492
23020,492
23028,496
23032,494
23036,493
23044,495
23048,496
23052,495
23057,496
23065,500
23069,502
23073,496
23081,495
23085,498
23089,499
23093,496
23102,498
23106,504
23110,500
23118,495
23122,496
23126,497
23130,492
23138,492
23143,495
23147,493
23155,490
23159,489
23163,493
23167,493
23175,491
23179,492
23183,496
23192,495
23196,496
23200,499
23204,503
23212,503
23216,504
23220,507
23228,509
23233,509
23237,509
23241,511
23249,516
23253,512
23257,512
23265,515
23270,514
23274,512
23278,513
23286,517
23290,515
23294,510
23302,514
23306,517
23310,513
23314,509
23323,515
23327,515
23331,509
23339,511
23343,513
23347,512
23351,508
23360,508
23364,510
23368,510
23376,507
23380,510
23384,512
23388,509
23396,508
23400,509
23405,512
23413,511
23417,508
23421,510
23425,512
23433,510
23437,508
23442,510
23450,513
23454,511
23458,509
23462,512
23470,512
23474,508
23479,508
23487,510
23491,507
23495,502
23499,505
23507,508
23511,503
23515,499
23523,502
23528,502
23532,497
23536,496
23544,497
23548,496
23552,494
23560,494
23564,496
23568,496
23572,495
23581,490
23585,481
23589,471
23597,462
23601,463
23605,492
23609,555
23618,591
23622,631
23626,648
23634,626
23638,593
23642,563
23646,544
23654,522
23658,507
23662,500
23671,493
23675,488
23679,490
23683,494
23691,490
23695,488
23699,490
23708,492
23712,489
23716,490
23720,493
23728,493
23732,489
23736,490
23744,494
23749,496
23753,491
23757,491
23765,493
23769,493
23773,492
23781,493
23785,496
23790,495
23794,494
23802,495
23806,499
23810,496
23818,493
23822,497
23826,501
23830,501
23839,498
23843,504
23847,503
23855,497
23859,497
23863,500
23868,497
23876,493
23880,496
23884,500
23892,497
23897,495
23901,499
23905,500
23913,497
23917,497
23921,498
23929,499
23933,496
23937,496
23942,498
23950,498
23954,497
23958,498
23966,500
23970,501
23974,500
23978,501
23986,506
23990,506
23995,504
24003,508
24007,509
24011,508
24015,505
24023,511
24027,512
24031,509
24039,510
24044,515
24048,517
24052,515
24060,514
24064,518
24068,515
24076,514
24080,516
24085,516
24089,513
24097,511
24101,512
24105,513
24113,510
24117,509
24121,512
24125,511
24133,510
24138,507
24142,510
24150,512
24154,509
24158,506
24162,507
24170,507
24174,502
24179,503
24187,507
24191,504
24195,501
24199,505
24207,511
24211,510
24215,510
24224,514
24228,514
24232,511
24236,511
24244,514
24248,510
24252,507
24260,508
24265,511
24269,508
24273,505
24281,505
24285,507
24289,504
24297,503
24301,503
24306,503
24310,502
24318,498
24322,499
24327,502
24334,494
24339,478
24343,468
24347,464
24355,463
24359,491
24363,558
24371,593
24376,621
24380,634
24384,620
24392,588
24396,558
24400,538
24408,525
24413,507
24416,493
24420,493
24428,492
24433,487
24437,489
24445,493
24450,491
24453,489
24457,492
24466,493
24470,491
24474,490
24482,491
24486,491
24490,492
24495,491
24503,491
24507,495
24511,493
24519,491
24523,493
24527,495
24531,492
24539,491
24543,497
24548,498
24555,493
24560,495
24564,500
24568,500
24576,495
24580,499
24584,503
24592,501
24596,502
24600,507
24605,508
24613,503
24617,503
24621,504
24629,504
24633,500
24637,500
24641,503
24650,501
24654,501
24658,501
24666,502
24671,502
24675,501
24679,499
24687,502
24691,502
24695,499
24703,499
24707,502
24712,500
24716,499
24724,503
24728,504
24732,501
24740,500
24744,506
24748,507
24752,503
24761,506
24765,511
24769,507
24777,505
24781,511
24785,513
24789,509
24797,508
24802,512
24806,512
24813,510
24818,511
24822,516
24826,514
24834,510
24838,511
24842,514
24850,515
24855,513
24859,513
24863,515
24871,514
24875,510
24879,512
24887,514
24892,512
24896,511
24900,512
24908,514
24912,512
24917,507
24924,509
24929,511
24933,507
24937,506
24945,510
24949,508
24953,506
24961,510
24965,513
24970,511
24974,508
24982,513
24986,515
24990,511
24998,510
25002,513
25006,512
25011,508
25019,508
25023,510
25027,510
25035,506
25039,505
25043,507
25048,506
25056,504
25060,503
25064,504
25068,503
25076,500
25080,500
25084,488
25092,471
25097,460
25101,460
25105,480
25113,536
25117,583
25121,624
25129,648
25133,632
25137,602
25142,572
25150,548
25154,528
25158,513
25166,500
25170,491
25174,486
25179,489
25187,490
25191,488
25195,488
25203,491
25207,492
25211,489
25215,490
25223,492
25228,492
25232,490
25240,490
25244,493
25248,494
25252,491
25260,491
25264,495
25268,493
25277,490
25281,492
25285,496
25289,493
25298,491
25301,495
25305,498
25313,494
25318,495
25322,500
25326,500
25334,497
25338,501
25342,506
25350,503
25354,501
25359,504
25363,504
25371,502
25375,501
25379,501
25387,504
25391,501
25395,500
25400,503
25408,503
25412,501
25416,501
25424,503
25428,503
25432,499
25436,498
25445,501
25449,502
25453,501
25461,502
25465,506
25469,505
25473,501
25481,505
25485,508
25490,505
25498,505
25502,509
25506,509
25510,505
25518,506
25522,510
25526,510
25535,508
25539,512
25543,513
25547,510
25555,510
25559,511
25563,512
25571,511
25576,508
25580,510
25584,510
25592,508
25596,508
25600,510
25608,511
25613,509
25617,507
25621,510
25629,512
25633,509
25637,507
25645,511
25649,511
25654,505
25658,507
25666,511
25670,508
25674,504
25682,507
25686,507
25690,506
25694,503
25703,506
25707,507
25711,504
25719,508
25723,510
25727,509
25731,507
25739,509
25744,510
25748,508
25756,504
25760,505
25764,505
25768,503
25776,503
25780,505
25785,506
25793,505
25797,502
25801,504
25805,507
25813,504
25818,504
25821,508
25830,509
25834,505
25838,500
25842,492
25850,478
25854,466
25858,466
25866,493
25870,555
25875,594
25879,635
25887,653
25891,631
25895,598
25903,569
25907,546
25912,524
25916,507
25924,496
25928,490
25932,485
25940,487
25944,487
25948,486
25952,485
25961,485
25965,489
25969,488
25977,484
25981,488
25985,490
25989,487
25998,487
26001,490
26006,491
26014,488
26018,488
26022,492
26026,491
26034,487
26038,489
26043,493
26051,489
26055,486
26059,491
26063,494
26071,492
26075,492
26079,496
26088,497
26092,495
26096,497
26100,499
26108,500
26112,497
26116,498
26124,501
26128,499
26133,498
26137,498
26145,501
26149,501
26153,500
26161,502
26166,507
26170,507
26174,503
26182,507
26186,510
26190,507
26198,506
26202,510
26206,511
26211,508
26219,509
26223,513
26227,512
26235,508
26239,511
26243,513
26247,511
26256,508
26260,512
26264,513
26272,510
26276,508
26280,512
26284,512
26292,510
26297,511
26300,513
26309,511
26313,510
26317,509
26321,512
26329,512
26333,510
26337,510
26345,514
26350,512
26354,509
26358,511
26366,514
26370,511
26374,507
26382,509
26387,512
26390,507
26395,505
26403,509
26407,510
26411,506
26420,504
26423,508
26427,507
26432,502
26440,504
26444,506
26448,504
26456,503
26460,505
26464,505
26468,505
26477,507
26481,510
26485,512
26493,510
26497,510
26501,513
26505,514
26514,512
26518,511
26522,514
26530,513
26534,511
26538,511
26542,514
26550,513
26554,509
26559,509
26567,513
26571,509
26575,507
26579,510
26587,512
26591,508
26595,508
26603,505
26608,490
26612,473
26616,467
26624,472
26628,496
26632,558
26640,598
26644,634
26649,646
26653,624
26661,593
26665,563
26669,541
26677,519
26681,504
26685,494
26690,489
26698,485
26702,487
26706,486
26714,484
26718,482
26722,487
26726,487
26735,484
26739,485
26743,489
26751,487
26755,484
26759,487
26763,490
26772,485
26776,484
26780,488
26788,489
26792,486
26796,485
26800,491
26808,487
26812,487
26817,490
26824,494
26829,493
26833,495
26837,496
26845,499
26849,498
26853,499
26861,502
26865,506
26869,504
26874,503
26882,505
26886,505
26890,503
26898,503
26902,506
26906,507
26910,504
26919,504
26923,507
26927,507
26935,504
26939,506
26943,510
26947,508
26955,505
26959,508
26963,512
26971,507
26976,506
26980,509
26984,509
26992,506
26996,506
27000,510
27008,509
27013,508
27017,509
27021,511
27029,510
27033,508
27037,509
27045,510
27049,510
27053,509
27058,510
27066,510
27070,508
27074,508
27082,510
27086,512
27090,508
27094,508
27103,509
27107,511
27111,508
27119,505
27123,510
27127,507
27131,504
27140,505
27144,510
27148,507
27156,503
27160,507
27164,509
27168,507
27176,506
27180,510
27185,512
27193,508
27197,510
27201,513
27205,511
27213,508
27217,509
27221,513
27230,513
27234,512
27238,511
27242,514
27250,515
27254,513
27258,515
27266,517
27271,515
27275,514
27279,515
27287,515
27291,512
27295,510
27303,514
27307,513
27311,509
27316,509
27324,514
27328,513
27332,509
27340,511
27344,514
27349,507
27353,506
27361,509
27365,511
27369,504
27377,492
27381,481
27385,470
27389,466
27398,484
27402,545
27406,591
27414,622
27418,641
27422,632
27426,603
27434,569
27438,544
27443,527
27451,507
27455,490
27459,485
27463,484
27471,483
27475,478
27479,480
27488,482
27492,477
27496,478
27500,483
27508,481
27512,478
27516,481
27524,484
27529,481
27533,481
27537,485
27545,489
27549,486
27553,487
27561,490
27565,491
27570,489
27574,492
27582,496
27586,497
27590,497
27598,497
27602,501
27606,500
27611,500
27619,501
27623,504
27627,506
27635,503
27639,504
27643,509
27647,507
27656,503
27660,504
27664,505
27672,502
27676,501
27680,507
27684,506
27692,503
27697,504
27701,507
27709,507
27713,503
27717,506
27721,508
27729,506
27733,502
27737,506
27745,508
27750,508
27754,507
27758,511
27766,511
27770,509
27774,511
27782,513
27788,511
27791,510
27795,509
27804,511
27808,511
27812,509
27819,507
27824,510
27828,509
27832,506
27840,505
27844,508
27849,506
27856,503
27861,506
27865,509
27869,504
27877,503
27881,507
27885,509
27893,504
27898,506
27902,509
27906,509
27914,505
27918,509
27922,512
27930,509
27935,510
27939,512
27943,513
27951,510
27955,508
27959,511
27967,512
27971,510
27976,511
27980,512
27988,513
27992,513
27996,513
28004,515
28008,517
28012,513
28016,513
28025,513
28029,510
28033,506
28041,509
28045,511
28049,509
28053,506
28062,508
28066,510
28070,506
28074,505
28082,511
28086,509
28090,506
28098,507
28102,510
28107,509
28111,504
28119,498
28123,486
28127,471
28135,467
28139,483
28143,537
28147,589
28156,620
28160,646
28164,637
28172,604
28176,570
28180,548
28184,531
28193,511
28197,494
28201,487
28209,482
28213,477
28217,475
28221,480
28229,477
28234,475
28238,480
28246,484
28250,479
28254,480
28258,486
28266,486
28270,483
28274,484
28283,490
28287,491
28291,487
28295,489
28303,493
28307,493
28311,493
28320,496
28324,499
28328,498
28332,498
28340,501
28345,504
28348,503
28356,503
28360,504
28365,508
28369,508
28377,508
28381,511
28385,512
28393,508
28397,507
28401,510
28405,508
28414,504
28418,505
28422,509
28430,507
28434,503
28438,507
28443,510
28450,505
28455,505
28459,512
28467,510
28471,506
28475,508
28479,511
28487,510
28492,508
28496,510
28504,511
28508,509
28512,507
28516,509
28524,509
28528,508
28532,506
28541,508
28545,510
28549,508
28553,507
28561,509
28565,510
28569,506
28578,505
28582,508
28586,509
28590,505
28598,505
28602,509
28606,509
28614,504
28618,507
28623,510
28627,508
28635,507
28639,511
28643,512
28651,510
28655,511
28659,515
28664,516
28672,511
28676,511
28680,513
28688,513
28692,511
28696,512
28700,512
28709,510
28713,510
28717,511
28725,513
28729,511
28733,511
28737,514
28746,516
28750,514
28754,513
28762,517
28766,519
28770,515
28774,514
28782,518
28786,517
28791,512
28799,513
28803,517
28807,515
28811,510
28819,513
28823,516
28827,511
28836,510
28840,513
28844,513
28848,511
28856,510
28860,511
28864,499
28872,483
28876,470
28881,466
28885,472
28893,519
28897,578
28901,614
28909,645
28913,643
28917,615
28922,583
28930,551
28934,528
28938,511
28946,497
28950,485
28954,480
28958,483
28966,485
28970,480
28975,480
28983,485
28987,485
28991,483
28995,485
29003,489
29007,487
29011,487
29019,491
29024,493
29028,489
29032,489
29040,493
29044,495
29048,491
29056,493
29060,495
29064,495
29069,492
29077,493
29081,496
29085,497
29093,495
29097,497
29102,499
29105,500
29113,498
29118,501
29122,506
29130,506
29134,504
29138,506
29142,508
29150,503
29154,503
29158,507
29167,508
29171,504
29175,504
29179,512
29187,508
29191,507
29195,508
29204,511
29208,509
29212,506
29216,510
29224,510
29228,507
29232,507
29241,511
29244,510
29249,509
29253,509
29261,509
29265,509
29269,508
29277,507
29281,509
29286,510
29290,508
29298,508
29302,510
29306,510
29315,506
29319,508
29323,511
29327,508
29335,505
29339,510
29343,510
29352,508
29356,506
29360,512
29364,511
29372,509
29376,510
29380,513
29388,512
29392,508
29396,509
29400,512
29408,510
29412,508
29416,511
29425,511
29429,511
29433,509
29437,510
29445,510
29449,507
29453,508
29462,511
29466,512
29470,510
29474,508
29482,511
29486,514
29490,511
29499,512
29503,516
29507,513
29511,511
29519,514
29523,514
29527,510
29535,509
29539,511
29543,514
29548,508
29556,508
29560,512
29564,511
29572,507
29576,510
29580,514
29585,510
29593,507
29597,510
29601,510
29609,507
29614,500
29618,490
29622,478
29630,468
29634,463
29638,485
29646,551
29650,592
29655,630
29659,651
29667,636
29671,599
29675,565
29683,545
29687,525
29691,504
29695,492
29704,490
29708,485
29712,482
29720,487
29724,489
29728,485
29732,485
29741,490
29745,490
29749,488
29757,489
29761,493
29765,493
29769,491
29778,495
29782,497
29786,496
29794,494
29798,498
29802,500
29806,498
29814,498
29818,501
29823,503
29831,503
29835,502
29839,505
29843,508
29851,507
29855,508
29860,512
29867,514
29872,513
29876,513
29880,517
29888,518
29892,512
29896,515
29904,519
29908,514
29913,511
29917,516
29925,517
29929,513
29933,513
29941,517
29945,516
29950,513
29954,515
29962,519
29966,518
29970,517
29978,519
29982,522
29986,520
29990,520
29999,520
30003,521
30007,521
30015,518
30019,519
30023,519
30027,518
30035,514
30039,517
30044,519
30052,515
30056,514
30060,518
30064,520
30072,515
30076,516
30081,519
30089,519
30093,514
30097,517
30102,522
30109,518
30113,516
30118,520
30125,521
30130,516
30134,515
30138,520
30146,519
30150,517
30154,517
30162,521
30167,520
30171,518
30175,518
30183,521
30187,520
30191,518
30199,518
30203,518
30207,516
30212,514
30220,517
30224,519
30228,515
30236,511
30240,516
30244,518
30248,515
30257,514
30261,521
30265,521
30273,516
30277,515
30281,519
30285,516
30293,513
30297,514
30302,516
30310,511
30314,509
30318,512
30322,512
30331,510
30334,510
30339,511
30347,509
30351,505
30355,505
30359,504
30367,502
30371,488
30375,474
30383,463
30388,457
30392,463
30396,511
30404,568
30408,601
30412,628
30420,628
30425,602
30429,564
30433,532
30441,517
30445,499
30449,479
30457,470
30461,472
30465,468
30470,463
30478,467
30482,470
30486,467
30494,467
30498,472
30502,474
30506,471
30515,471
30519,473
30523,472
30531,470
30535,472
30539,475
30543,474
30551,470
30556,469
30560,472
30567,471
30572,470
30576,470
30580,473
30588,475
30592,471
30597,467
30604,468
30609,468
30613,467
30617,472
30625,478
30629,477
30633,479
30641,483
30646,485
30650,478
30654,476
30662,481
30666,484
30670,481
30678,483
30683,487
30687,486
30691,487
30699,490
30703,489
30707,488
30715,488
30719,491
30724,490
30728,487
30736,490
30740,491
30744,493
30752,490
30756,490
30760,493
30765,492
30773,489
30777,491
30781,493
30788,491
30793,490
30797,492
30801,493
30809,491
30813,488
30817,494
30825,495
30830,491
30834,492
30838,497
30846,497
30850,494
30854,496
30862,501
30866,500
30870,496
30874,501
30883,505
30887,503
30891,501
30899,503
30903,506
30907,501
30911,502
30919,503
30924,503
30928,501
30936,502
30940,505
30944,504
30948,502
30957,502
30960,504
30965,504
30973,497
30977,498
30981,505
30985,505
30993,501
30997,503
31001,506
31006,503
31014,500
31018,505
31022,508
31030,503
31034,505
31038,511
31042,511
31050,504
31055,505
31059,509
31067,506
31071,503
31075,507
31079,508
31087,505
31092,503
31096,507
31104,504
31108,489
31112,472
31116,459
31124,458
31128,474
31133,535
31141,588
31145,618
31149,628
31153,611
31161,584
31165,555
31169,529
31178,514
31182,504
31186,488
31190,474
31198,471
31202,471
31206,471
31214,471
31219,477
31223,478
31227,474
31235,476
31239,483
31243,484
31251,483
31256,484
31260,487
31264,484
31272,484
31276,487
31280,487
31289,486
31292,487
31296,491
31300,492
31309,490
31313,491
31317,493
31325,494
31329,492
31333,494
31337,499
31345,502
31349,501
31354,501
31362,507
31366,508
31370,503
31374,505
31382,506
31386,504
31390,498
31399,500
31403,502
31407,500
31411,499
31419,503
31423,504
31427,500
31436,501
31440,502
31444,502
31448,499
31456,500
31460,504
31464,504
31472,502
31477,503
31481,505
31485,501
31493,499
31497,501
31501,499
31509,497
31513,494
31517,492
31522,491
31530,485
31534,482
31538,486
31546,488
31550,484
31554,484
31558,485
31567,482
31571,480
31575,483
31583,485
31587,484
31591,482
31595,487
31603,489
31608,483
31612,478
31620,483
31624,485
31628,481
31632,484
31640,489
31644,484
31649,480
31657,484
31661,487
31665,483
31669,483
31677,483
31681,485
31685,484
31694,490
31698,491
31702,491
31706,495
31714,493
31718,491
31723,492
31730,491
31735,491
31739,490
31743,491
31751,487
31756,489
31760,495
31768,495
31772,487
31776,488
31780,494
31788,488
31792,484
31797,489
31805,490
31809,488
31813,489
31817,480
31825,470
31829,454
31833,460
31842,479
31846,536
31850,602
31854,637
31862,655
31866,640
31870,609
31879,587
31882,569
31887,555
31891,542
31899,538
31903,535
31907,531
31915,527
31919,526
31923,533
31928,532
31936,531
31940,536
31944,540
31952,538
31956,539
31960,546
31964,544
31972,541
31977,545
31981,548
31989,544
31993,545
31997,550
32001,548
32010,544
32014,542
32018,549
32026,548
32030,543
32034,548
32038,555
32046,554
32051,547
32054,551
32063,558
32067,556
32071,556
32075,561
32083,564
32087,561
32091,556
32100,558
32104,559
32108,552
32112,551
32120,557
32124,556
32128,553
32136,553
32140,559
32145,557
32149,548
32157,551
32161,562
32165,557
32173,554
32177,559
32181,565
32186,566
32194,562
32198,568
32202,569
32210,567
32214,568
32218,572
32222,573
32231,579
32235,582
32239,583
32247,582
32251,585
32255,589
32259,594
32267,589
32272,585
32276,584
32284,584
32288,587
32292,584
32296,583
32304,592
32308,591
32312,587
32321,589
32325,594
32329,597
32333,599
32341,605
32345,605
32349,601
32357,604
32362,605
32366,601
32370,598
32378,601
32382,603
32386,599
32394,597
32398,599
32403,599
32407,592
32415,589
32419,591
32423,588
32431,583
32435,583
32439,583
32444,582
32452,580
32456,575
32460,575
32468,572
32472,567
32477,567
32480,567
32489,562
32493,556
32497,557
32505,557
32509,537
32513,518
32517,508
32525,508
32529,517
32534,575
32542,656
32546,683
32550,689
32554,669
32562,636
32566,603
32570,579
32579,566
32583,553
32587,536
32591,527
32599,526
32603,525
32607,523
32615,526
32620,531
32624,532
32628,532
32636,533
32640,537
32644,536
32652,534
32656,534
32661,537
32665,536
32673,533
32677,535
32681,536
32689,533
32693,529
32697,532
32702,534
32710,530
32714,527
32718,530
32726,528
32730,520
32734,519
32739,523
32747,518
32751,510
32755,512
32763,516
32767,514
32771,510
32775,509
32784,503
32788,492
32792,484
32800,477
32804,469
32808,458
32812,451
32820,448
32824,442
32828,434
32837,433
32841,437
32845,437
32849,429
32857,430
32861,431
32865,431
32873,428
32878,436
32882,442
32886,440
32894,439
32898,446
32902,450
32910,444
32914,446
32919,455
32923,457
32931,449
32935,455
32939,462
32947,459
32951,454
32956,459
32959,464
32968,459
32972,456
32976,462
32984,462
32988,456
32992,455
32996,463
33005,464
33009,458
33013,458
33021,463
33025,465
33029,461
33033,459
33042,462
33045,460
33050,453
33058,457
33062,465
33066,461
33070,454
33078,456
33083,461
33086,455
33095,450
33099,456
33103,456
33107,450
33115,451
33119,458
33123,458
33131,447
33136,449
33140,454
33144,452
33152,445
33156,449
33160,453
33168,450
33172,449
33177,455
33181,455
33189,452
33193,452
33197,455
33205,448
33209,428
33214,413
33218,409
33226,409
33230,445
33234,532
33242,585
33246,617
33250,615
33254,585
33263,552
33267,517
33271,490
33279,477
33283,462
33287,443
33291,442
33299,448
33303,448
33308,443
33316,444
33320,452
33324,452
33328,452
33336,457
33340,463
33345,462
33352,463
33357,469
33361,473
33365,470
33373,470
33377,476
33381,475
33389,474
33394,475
33398,481
33402,481
33410,477
33414,478
33418,483
33426,486
33430,482
33435,487
33439,493
33447,493
33451,491
33455,497
33463,504
33467,503
33472,500
33476,507
33484,509
33488,504
33492,504
33500,509
33504,509
33508,504
33512,506
33521,512
33525,510
33529,507
33536,507
33541,511
33545,506
33549,504
33557,507
33562,508
33566,501
33573,500
33578,505
33582,505
33586,501
33594,502
33598,504
33603,507
33610,505
33615,505
33619,508
33623,508
33631,505
33635,506
33639,510
33647,508
33652,507
33656,509
33660,515
33668,511
33672,507
33676,511
33684,510
33689,506
33693,505
33697,512
33705,511
33709,505
33713,506
33721,511
33725,510
33729,507
33734,510
33742,513
33746,507
33750,506
33758,510
33762,512
33766,509
33770,511
33779,514
33783,515
33787,514
33794,513
33799,516
33803,518
33807,515
33815,516
33819,519
33824,519
33831,515
33836,515
33840,519
33844,515
33852,511
33856,514
33861,517
33868,510
33873,506
33877,512
33881,513
33889,507
33893,506
33897,503
33905,487
33910,464
33914,457
33918,461
33926,504
33930,581
33934,629
33942,669
33946,673
33951,637
33955,596
33963,559
33967,528
33971,504
33975,489
33983,479
33987,471
33991,468
33999,470
34004,472
34008,467
34012,467
34020,473
34024,474
34029,468
34037,472
34041,477
34045,475
34049,471
34057,476
34061,477
34065,475
34073,474
34077,479
34081,480
34085,476
34093,477
34098,480
34102,476
34110,473
34114,477
34118,482
34122,482
34130,481
34135,484
34139,488
34147,487
34151,489
34155,495
34159,498
34167,498
34171,496
34175,501
34184,503
34188,500
34192,499
34196,507
34204,507
34208,502
34212,504
34220,508
34224,509
34229,505
34233,508
34241,513
34245,508
34249,505
34257,510
34261,512
34265,506
34270,506
34278,510
34282,511
34286,504
34294,503
34298,509
34302,506
34306,503
34315,503
34319,508
34323,504
34331,502
34335,505
34339,506
34343,504
34351,502
34356,504
34360,505
34368,502
34372,502
34377,505
34381,509
34389,505
34393,505
34397,509
34405,510
34409,507
34413,506
34417,512
34425,509
34429,502
34433,507
34442,510
34446,507
34450,502
34454,507
34462,509
34466,503
34470,503
34478,510
34483,509
34487,502
34491,505
34499,510
34503,507
34507,504
34516,508
34520,509
34524,506
34528,503
34536,506
34540,508
34544,508
34552,509
34556,512
34560,517
34564,514
34573,514
34577,518
34581,521
34589,518
34593,518
34597,523
34601,524
34610,519
34614,521
34618,523
34626,506
34631,487
34635,476
34639,474
34647,478
34651,538
34655,605
34663,648
34667,672
34671,665
34676,633
34684,593
34688,557
34692,535
34700,516
34704,499
34708,487
34712,486
34720,486
34724,485
34728,482
34737,484
34741,488
34745,486
34749,484
34757,487
34761,490
34766,489
34773,485
34777,489
34782,491
34786,486
34794,485
34798,491
34802,490
34810,486
34814,487
34818,491
34822,487
34831,484
34835,487
34839,493
34847,488
34851,490
34855,495
34859,496
34868,492
34872,495
34876,501
34884,503
34888,498
34892,501
34896,503
34904,501
34908,501
34912,501
34921,504
34925,503
34929,502
34933,506
34941,512
34945,510
34949,509
34958,513
34962,517
34966,516
34970,514
34978,519
34982,521
34986,516
34994,515
34998,520
35002,519
35007,514
35015,517
35019,521
35023,516
35031,512
35035,516
35039,520
35043,514
35052,513
35056,519
35060,518
35068,513
35072,513
35076,518
35080,516
35089,514
35093,514
35097,517
35105,515
35109,512
35113,513
35117,517
35126,515
35130,513
35134,516
35142,517
35146,516
35150,512
35154,516
35162,518
35166,514
35170,511
35179,515
35183,515
35187,509
35191,509
35199,512
35203,511
35207,503
35215,504
35220,508
35224,503
35228,501
35236,506
35240,508
35244,501
35252,503
35257,511
35261,511
35265,508
35273,510
35277,515
35281,513
35289,510
35293,513
35297,514
35302,514
35310,512
35314,515
35318,518
35326,515
35330,514
35334,516
35338,521
35347,516
35351,513
35355,515
35363,520
35367,516
35371,515
35375,517
35384,504
35388,484
35392,475
35400,473
35404,489
35408,552
35412,608
35421,650
35425,668
35429,649
35437,620
35441,582
35445,549
35449,527
35457,514
35461,497
35465,486
35473,485
35478,490
35482,490
35486,487
35494,489
35498,492
35502,492
35510,488
35515,492
35519,496
35523,495
35531,492
35535,494
35539,497
35547,494
35551,490
35555,494
35560,495
35568,489
35572,487
35576,492
35584,492
35588,488
35592,489
35597,493
35605,491
35609,489
35613,494
35621,500
35625,498
35630,497
35633,502
35642,506
35646,504
35650,504
35658,509
35662,510
35667,506
35671,506
35679,511
35683,511
35687,507
35695,512
35699,514
35703,513
35708,512
35716,515
35720,518
35724,516
35732,514
35736,516
35740,519
35744,516
35753,514
35757,517
35761,520
35769,514
35773,512
35777,518
35781,518
35789,510
35794,512
35798,517
35806,513
35810,511
35814,514
35818,518
35826,514
35830,510
35834,515
35843,516
35847,513
35851,512
35855,515
35863,516
35867,512
35871,514
35879,518
35884,518
35888,515
35892,516
35900,517
35904,515
35909,512
35916,513
35920,515
35924,513
35929,509
35937,511
35941,514
35945,510
35953,505
35957,512
35961,513
35965,507
35974,507
35978,512
35982,509
35990,505
35994,505
35998,511
36002,508
36011,505
36015,508
36019,510
36027,505
36031,503
36035,509
36039,512
36048,508
36051,507
36056,510
36063,511
36068,508
36072,509
36076,514
36084,514
36088,512
36092,515
36100,519
36105,519
36109,515
36113,519
36121,523
36125,519
36129,514
36137,518
36142,519
36146,515
36150,512
36158,516
36162,510
36166,492
36174,476
36179,475
36183,470
36187,497
36195,575
36200,620
36203,654
36211,664
36215,643
36219,608
36224,569
36232,544
36236,528
36240,508
36248,493
36252,489
36256,491
36260,491
36269,486
36273,487
36277,492
36285,490
36289,487
36293,489
36297,492
36305,492
36310,488
36314,489
36322,492
36326,490
36330,487
36334,493
36342,494
36346,488
36351,490
36358,494
36363,494
36367,488
36371,491
36379,496
36383,493
36387,492
36395,495
36400,500
36404,496
36408,496
36416,501
36420,505
36424,504
36432,503
36436,507
36441,506
36445,502
36453,500
36457,503
36461,503
36469,499
36473,500
36477,503
36482,501
36490,497
36494,498
36498,501
36506,502
36510,501
36514,505
36518,511
36527,508
36531,507
36535,512
36543,517
36547,513
36551,513
36555,520
36563,519
36567,514
36572,517
36579,525
36584,521
36588,515
36592,519
36600,520
36604,517
36609,515
36616,519
36621,521
36625,516
36629,514
36637,515
36641,517
36645,513
36653,513
36658,515
36662,514
36666,511
36674,511
36678,515
36682,514
36690,510
36694,512
36699,516
36703,515
36711,512
36715,514
36719,518
36727,514
36732,511
36735,517
36739,518
36748,511
36752,512
36756,518
36764,517
36768,513
36772,513
36776,517
36785,509
36789,507
36793,509
36801,510
36805,506
36809,504
36813,507
36821,510
36825,507
36830,508
36837,511
36842,511
36846,508
36850,507
36858,511
36862,509
36867,507
36871,504
36879,509
36883,507
36887,502
36895,504
36899,509
36903,507
36907,505
36915,510
36920,515
36924,512
36932,511
36936,518
36940,520
36944,513
36953,507
36957,498
36961,481
36969,471
36973,474
36977,513
36981,584
36989,617
36993,658
36998,668
37006,637
37010,601
37014,566
37018,547
37026,525
37030,502
37034,495
37043,493
37047,489
37051,487
37055,491
37063,492
37067,489
37071,487
37079,492
37084,490
37088,488
37092,491
37100,497
37104,493
37108,490
37116,493
37120,498
37125,493
37129,492
37137,498
37141,499
37145,493
37153,492
37157,499
37161,496
37166,491
37174,493
37178,498
37182,494
37190,494
37194,497
37198,500
37202,497
37211,497
37215,503
37219,504
37227,501
37231,499
37235,502
37239,502
37247,498
37252,499
37256,503
37264,504
37268,501
37272,500
37276,507
37284,507
37288,504
37292,506
37301,513
37305,509
37309,507
37313,512
37321,517
37325,514
37329,513
37337,520
37342,520
37346,519
37350,518
37358,522
37362,521
37366,519
37374,522
37378,524
37383,520
37387,518
37395,519
37399,521
37403,518
37411,516
37415,517
37419,520
37423,519
37432,517
37436,519
37440,520
37448,514
37452,514
37456,518
37460,518
37469,513
37473,515
37477,520
37485,517
37489,513
37493,515
37497,520
37505,515
37509,512
37514,517
37522,518
37526,510
37530,510
37534,513
37542,513
37546,507
37550,509
37559,511
37563,507
37567,504
37571,507
37579,508
37583,504
37587,502
37595,504
37600,505
37604,502
37608,501
37616,503
37620,508
37624,505
37632,504
37636,505
37641,507
37645,503
37653,503
37657,507
37661,506
37669,501
37673,506
37677,512
37681,510
37690,508
37694,513
37698,519
37706,516
37710,514
37714,518
37718,521
37726,515
37731,516
37735,520
37743,517
37747,504
37751,492
37755,483
37763,474
37767,477
37771,522
37780,594
37784,626
37788,655
37792,661
37801,631
37804,593
37808,560
37817,542
37821,524
37825,505
37829,494
37837,495
37841,493
37845,486
37854,488
37858,491
37862,490
37866,486
37874,487
37878,493
37882,491
37890,486
37894,492
37899,495
37903,488
37911,485
37915,492
37919,492
37927,487
37931,487
37935,490
37939,489
37948,485
37952,488
37956,492
37964,489
37968,487
37972,490
37976,493
37985,493
37989,493
37993,497
38001,501
38005,500
38009,501
38013,504
38021,505
38026,504
38030,502
38038,506
38042,509
38046,504
38050,506
38058,511
38062,512
38067,506
38075,510
38079,512
38083,510
38087,507
38095,511
38099,515
38104,510
38112,509
38116,514
38119,515
38124,509
38132,509
38136,514
38140,514
38148,510
38152,512
38157,516
38161,513
38169,509
38173,511
38177,514
38185,513
38189,509
38193,512
38198,514
38206,511
38210,510
38214,512
38222,514
38226,511
38230,510
38234,515
38242,513
38247,510
38251,510
38259,514
38263,511
38267,507
38271,509
38279,511
38283,506
38288,503
38296,507
38300,508
38304,501
38308,501
38316,506
38320,507
38325,502
38333,503
38337,507
38341,505
38345,503
38353,503
38357,506
38361,505
38369,501
38373,503
38377,505
38382,503
38390,503
38394,505
38398,509
38406,510
38410,506
38414,512
38418,515
38427,512
38431,511
38435,515
38443,516
38447,511
38451,512
38455,518
38464,517
38468,512
38472,517
38480,519
38484,516
38488,512
38492,517
38501,517
38505,512
38509,511
38517,513
38521,514
38525,508
38529,496
38537,486
38542,472
38546,464
38554,475
38558,534
38562,594
38566,624
38574,655
38578,648
38582,615
38591,578
38595,553
38599,536
38603,512
38611,495
38615,491
38619,488
38627,483
38631,481
38636,485
38640,486
38648,480
38652,481
38656,486
38664,484
38668,479
38672,482
38676,485
38684,480
38688,479
38692,481
38701,483
38705,478
38709,477
38713,481
38721,481
38725,477
38729,478
38738,484
38742,483
38746,481
38750,482
38758,487
38762,488
38766,486
38774,490
38778,497
38783,497
38787,497
38795,501
38799,505
38803,503
38811,500
38815,504
38819,506
38824,504
38832,503
38836,509
38840,509
38848,502
38852,506
38856,509
38860,505
38869,503
38873,506
38877,511
38885,505
38889,504
38893,512
38897,510
38905,504
38910,507
38914,512
38922,512
38926,509
38930,510
38934,514
38942,513
38946,511
38950,513
38959,516
38963,514
38967,513
38971,514
38979,516
38983,513
38987,511
38995,515
39000,518
39004,513
39008,511
39016,515
39020,513
39024,507
39032,508
39036,514
39041,511
39045,507
39053,507
39057,514
39061,508
39069,505
39073,510
39078,512
39082,508
39090,506
39094,510
39098,512
39106,508
39110,508
39114,512
39118,512
39127,507
39131,509
39135,510
39143,509
39147,508
39151,510
39155,513
39163,511
39168,508
39172,513
39180,517
39184,514
39188,511
39192,515
39200,517
39204,513
39209,510
39217,517
39221,517
39225,512
39229,511
39237,517
39241,514
39245,510
39253,511
39258,516
39262,510
39266,507
39274,512
39278,514
39282,510
39290,509
39295,510
39299,496
39303,478
39311,467
39315,468
39319,482
39327,537
39331,595
39335,630
39339,652
39348,638
39352,608
39356,577
39364,548
39368,526
39372,509
39376,499
39385,489
39389,482
39393,484
39401,485
39405,480
39409,478
39413,485
39422,486
39426,482
39430,483
39438,489
39442,485
39446,484
39450,488
39458,493
39462,487
39467,486
39474,492
39479,491
39483,489
39487,491
39495,494
39499,495
39503,492
39511,493
39516,497
39520,500
39524,497
39532,500
39536,505
39540,507
39548,505
39552,508
39557,512
39561,511
39569,506
39573,508
39577,508
39585,505
39590,500
39594,505
39598,506
39606,505
39610,502
39614,506
39622,507
39627,503
39631,505
39635,510
39643,510
39647,506
39651,510
39659,514
39664,510
39668,509
39672,512
39680,514
39684,509
39688,510
39696,512
39700,512
39705,508
39709,509
39717,510
39721,510
39725,505
39733,506
39738,510
39741,510
39745,506
39754,508
39758,511
39762,510
39770,506
39774,509
39778,512
39782,510
39791,507
39795,513
39799,513
39806,510
39811,509
39815,516
39819,516
39827,511
39831,513
39836,518
39843,515
39848,510
39853,515
39856,518
39864,515
39868,512
39873,515
39880,517
39885,511
39889,511
39893,514
39901,514
39905,510
39909,511
39913,515
39922,512
39926,511
39930,515
39938,520
39942,518
39946,517
39950,519
39959,522
39963,521
39967,516
39975,519
39979,521
39983,518
39987,515
39995,521
39999,523
40003,517
40012,514
40016,522
40020,517
40024,513
40032,515
40036,520
40040,515
40049,512
40053,509
40057,495
40061,479
40069,470
40073,476
40077,504
40085,568
40089,606
40093,642
40098,655
40106,629
40110,599
40114,570
40122,546
40126,524
40131,507
40135,497
40143,492
40147,483
40151,481
40159,487
40163,484
40167,480
40171,485
40180,488
40184,487
40188,482
40196,488
40200,489
40204,484
40208,484
40216,491
40220,490
40225,484
40233,489
40237,493
40241,491
40245,487
40253,493
40257,494
40262,490
40270,490
40274,493
40278,495
40282,493
40290,493
40294,497
40298,498
40307,495
40311,498
40315,503
40319,502
40327,500
40331,498
40335,503
40343,500
40348,496
40352,498
40356,502
40364,502
40368,500
40372,506
40380,508
40384,505
40389,504
40393,509
40401,511
40405,505
40409,505
40417,510
40421,509
40425,504
40429,506
40438,510
40442,507
40446,502
40454,507
40458,508
40462,505
40466,504
40475,507
40479,505
40483,503
40491,503
40495,505
40499,504
40503,502
40511,501
40515,504
40520,502
40528,498
40532,499
40536,504
40540,500
40548,499
40552,500
40557,505
40564,502
40569,499
40573,506
40577,508
40585,504
40589,502
40593,509
40601,508
40606,504
40610,505
40614,511
40622,509
40626,502
40630,505
40638,508
40643,505
40646,503
40651,505
40659,506
40663,504
40667,506
40675,511
40679,510
40683,508
40687,506
40696,511
40700,509
40704,507
40712,506
40716,511
40720,511
40724,508
40733,508
40737,513
40741,509
40749,507
40753,509
40757,513
40761,509
40769,506
40774,509
40777,510
40786,507
40790,503
40794,503
40798,487
40807,471
40810,465
40814,475
40823,507
40827,566
40831,600
40835,636
40843,641
40847,613
40851,584
40859,555
40864,531
40868,512
40872,498
40880,488
40884,479
40888,477
40896,480
40900,478
40905,475
40909,475
40917,478
40921,478
40925,476
40933,476
40938,481
40942,478
40945,478
40954,482
40958,484
40962,481
40970,481
40974,488
40978,489
40982,484
40990,484
40995,491
40999,491
41007,487
41011,491
41015,497
41019,495
41027,494
41031,499
41036,503
41044,500
41048,501
41052,505
41056,507
41064,506
41068,506
41073,509
41080,508
41085,504
41089,504
41093,506
41101,507
41105,503
41109,505
41117,508
41121,508
41126,503
41130,506
41138,514
41142,510
41146,506
41154,511
41158,516
41162,510
41166,509
41175,514
41179,517
41183,510
41191,508
41195,515
41199,515
41203,507
41212,510
41216,517
41220,513
41228,507
41232,512
41236,515
41240,510
41248,506
41253,509
41257,511
41265,504
41269,504
41273,507
41277,506
41285,502
41290,501
41294,505
41302,503
41306,500
41310,499
41314,506
41322,504
41326,499
41330,502
41338,508
41343,505
41347,499
41351,505
41359,508
41363,504
41367,503
41375,509
41379,510
41383,506
41388,510
41396,519
41400,518
41404,514
41412,517
41416,523
41420,518
41425,515
41433,518
41437,519
41441,514
41449,513
41453,516
41457,518
41461,516
41470,512
41474,515
41478,517
41486,512
41490,512
41494,516
41498,516
41506,513
41511,510
41515,505
41523,491
41527,476
41531,474
41535,485
41543,520
41548,572
41552,606
41560,641
41564,639
41568,613
41572,586
41580,556
41584,531
41588,514
41597,503
41601,492
41605,483
41609,485
41618,487
41621,482
41625,478
41633,484
41638,484
41642,480
41646,477
41654,479
41658,479
41662,477
41670,476
41674,479
41679,479
41682,477
41691,477
41695,480
41699,482
41707,480
41711,478
41715,482
41719,482
41728,477
41732,481
41736,487
41744,487
41748,484
41752,492
41756,496
41765,492
41769,494
41773,501
41781,502
41785,498
41789,500
41793,503
41801,502
41806,497
41809,502
41817,505
41822,502
41826,501
41830,505
41838,506
41842,504
41846,504
41854,507
41859,509
41863,506
41867,505
41875,506
41879,506
41884,504
41891,506
41896,509
41900,510
41904,505
41912,505
41916,509
41920,509
41928,506
41933,509
41936,512
41941,507
41949,505
41953,511
41957,512
41965,508
41969,505
41973,510
41977,509
41986,506
41990,508
41994,512
42002,510
42006,505
42010,508
42014,511
42022,509
42027,508
42031,507
42039,509
42043,506
42047,502
42051,503
42059,504
42063,501
42067,499
42075,502
42080,502
42084,500
42088,500
42096,505
42100,507
42104,506
42112,510
42117,515
42121,514
42125,512
42133,516
42137,519
42141,515
42149,513
42154,518
42158,519
42162,514
42170,513
42174,518
42178,516
42186,510
42190,512
42194,515
42198,511
42207,509
42211,511
42215,513
42223,510
42227,509
42231,501
42236,488
42244,473
42248,467
42252,477
42260,519
42264,576
42268,607
42272,638
42280,641
42285,613
42289,582
42296,559
42302,539
42305,517
42309,503
42318,497
42321,492
42325,487
42334,490
42338,495
42342,490
42346,486
42354,491
42358,492
42362,490
42370,489
42374,493
42379,492
42383,486
42391,488
42395,491
42399,487
42407,485
42412,487
42416,487
42420,486
42428,484
42432,487
42436,489
42444,489
42448,489
42452,492
42457,495
42465,492
42469,496
42473,500
42481,501
42485,502
42490,503
42493,508
42502,508
42506,505
42510,506
42518,508
42522,508
42526,505
42530,511
42539,515
42543,511
42547,510
42554,513
42559,513
42563,509
42568,509
42575,514
42579,510
42584,507
42591,508
42596,510
42600,508
42604,505
42612,507
42617,510
42621,508
42628,508
42633,513
42637,514
42641,512
42649,511
42654,513
42657,515
42665,512
42670,510
42673,513
42677,514
42686,511
42690,512
42694,514
42702,513
42706,509
42710,511
42714,515
42722,511
42726,509
42731,512
42738,516
42743,511
42747,510
42751,513
42759,512
42763,507
42768,507
42775,509
42780,506
42784,502
42788,503
42796,506
42800,502
42804,498
42808,502
42816,503
42821,505
42825,507
42833,507
42839,508
42842,507
42845,510
42853,511
42858,512
42862,509
42870,510
42874,512
42878,513
42882,510
42890,512
42896,516
42899,515
42907,510
42911,513
42915,516
42919,514
42927,510
42931,515
42935,516
42944,509
42948,500
42952,490
42956,477
42964,468
42968,474
42972,517
42981,578
42985,606
42989,641
42993,646
43002,617
43005,581
43009,555
43017,536
43021,515
43025,499
43030,492
43038,488
43042,485
43046,484
43054,487
43058,489
43062,487
43066,487
43075,490
43079,491
43083,489
43091,489
43095,494
43099,493
43103,490
43112,490
43116,495
43120,491
43128,488
43132,491
43136,494
43140,489
43148,489
43153,493
43156,491
43165,487
43169,489
43173,494
43177,491
43186,489
43189,492
43193,495
43202,496
43206,497
43210,503
43214,504
43222,502
43226,501
43230,503
43238,505
43243,503
43247,504
43251,508
43259,509
43263,507
43267,507
43275,511
43279,511
43283,510
43287,510
43296,515
43300,513
43304,509
43312,512
43316,515
43320,510
43324,507
43333,511
43337,512
43341,506
43349,506
43353,510
43357,510
43361,505
43370,507
43374,512
43378,510
43386,507
43390,511
43394,512
43398,511
43406,509
43411,510
43415,511
43423,510
43427,510
43431,512
43435,513
43443,511
43447,509
43451,512
43459,513
43464,512
43468,511
43472,512
43480,512
43484,507
43488,509
43496,512
43500,510
43505,504
43509,505
43517,506
43521,504
43525,501
43533,504
43537,505
43542,499
43546,502
43554,508
43558,507
43562,505
43570,507
43574,510
43578,508
43582,504
43591,507
43595,510
43599,508
43607,507
43611,510
43615,511
43620,509
43628,509
43632,512
43636,515
43644,513
43648,511
43652,514
43656,515
43665,511
43669,510
43673,503
43681,489
43686,472
43689,468
43693,480
43702,527
43706,583
43710,616
43718,650
43722,644
43726,612
43730,582
43738,556
43743,533
43747,514
43755,504
43759,495
43763,487
43767,488
43775,491
43780,488
43784,487
43792,490
43796,492
43800,488
43804,490
43812,493
43817,495
43820,492
43829,491
43833,493
43837,494
43841,493
43849,493
43853,495
43857,495
43865,491
43870,491
43874,496
43878,496
43886,492
43890,494
43894,497
43902,496
43906,493
43911,496
43915,500
43923,499
43927,499
43931,503
43939,504
43944,501
43948,503
43952,505
43960,505
43964,500
43968,503
43976,507
43980,505
43985,505
43989,509
43996,511
44001,509
44005,509
44013,510
44017,511
44021,510
44025,511
44033,510
44038,512
44041,509
44049,509
44053,512
44058,511
44062,509
44070,508
44074,513
44078,512
44086,507
44090,509
44094,513
44098,512
44107,508
44111,511
44115,513
44123,510
44127,508
44131,514
44135,514
44144,510
44148,512
44152,516
44160,513
44164,511
44168,514
44172,516
44180,514
44185,513
44189,513
44197,515
44201,513
44205,511
44209,513
44217,513
44221,510
44225,511
44233,512
44238,511
44242,506
44246,504
44254,507
44258,507
44262,502
44270,503
44275,507
44279,509
44283,508
44291,509
44295,514
44299,511
44307,510
44311,513
44315,515
44319,510
44328,509
44332,515
44336,513
44344,510
44348,511
44353,513
44357,512
44365,508
44369,509
44373,512
44381,510
44385,509
44390,513
44394,513
44402,510
44406,500
44410,489
44418,475
44422,468
44426,472
44430,508
44438,573
44442,604
44447,638
44455,649
44459,624
44463,587
44467,558
44475,540
44479,521
44485,500
44491,494
44496,492
44500,486
44504,484
44512,489
44516,491
44521,488
44528,489
44533,493
44537,492
44541,489
44549,492
44553,493
44557,492
44565,489
44569,490
44573,493
44578,491
44586,490
44590,492
44594,494
44602,489
44606,491
44610,493
44614,493
44623,491
44627,492
44631,494
44639,497
44643,496
44647,496
44651,501
44660,501
44664,499
44668,502
44676,506
44680,504
44684,501
44688,502
44697,506
44701,502
44705,501
44713,506
44717,507
44721,502
44725,505
44733,509
44738,508
44742,506
44750,508
44754,512
44758,509
44762,508
44771,513
44775,513
44779,510
44787,510
44791,512
44795,513
44799,512
44807,511
44812,512
44816,514
44824,510
44828,510
44832,514
44836,515
44844,511
44848,510
44852,514
44861,514
44865,512
44869,513
44873,516
44881,513
44885,510
44889,516
44897,517
44902,514
44906,513
44910,516
44918,516
44922,513
44926,514
44934,518
44938,516
44943,511
44947,512
44955,513
44959,510
44963,511
44971,510
44975,513
44979,509
44984,507
44992,509
44996,509
45000,507
45008,505
45012,506
45016,509
45020,508
45029,508
45033,511
45037,512
45045,510
45049,510
45054,512
45057,510
45065,508
45070,510
45074,515
45082,513
45087,509
45090,512
45094,514
45102,512
45106,511
45111,516
45119,516
45123,512
45127,513
45131,517
45139,515
45143,512
45147,503
45155,491
45160,477
45164,472
45168,483
45176,531
45180,587
45184,618
45192,647
45196,645
45201,615
45205,581
45213,555
45217,539
45221,517
45229,500
45233,497
45237,491
45242,487
45250,488
45254,492
45258,491
45266,487
45270,491
45274,496
45279,493
45286,490
45291,495
45295,497
45303,492
45307,491
45311,495
45315,496
45323,490
45328,492
45332,494
45340,492
45344,491
45348,494
45352,496
45360,495
45364,494
45369,496
45377,497
45381,497
45385,495
45389,498
45397,500
45402,500
45405,499
45413,501
45418,503
45422,500
45426,500
45434,503
45438,503
45442,500
45450,502
45455,507
45459,505
45463,503
45471,506
45475,508
45479,506
45487,506
45491,511
45495,513
45500,510
45508,511
45512,515
45516,513
45524,510
45528,512
45532,515
45536,513
45545,511
45549,513
45553,513
45560,513
45565,511
45569,512
45573,513
45581,512
45586,512
45590,513
45597,515
45602,512
45606,513
45610,515
45618,516
45622,513
45627,513
45634,517
45639,515
45643,512
45647,515
45655,519
45659,517
45663,513
45671,516
45676,519
45680,515
45684,512
45692,516
45696,516
45700,512
45708,512
45713,514
45717,514
45721,508
45729,510
45733,511
45737,509
45745,506
45749,509
45754,509
45758,507
45766,506
45770,505
45774,509
45778,507
45786,507
45790,508
45794,510
45803,509
45807,508
45811,511
45815,512
45823,510
45827,510
45831,515
45839,520
45844,516
45847,519
45852,523
45860,523
45864,520
45868,524
45877,528
45880,525
45884,524
45888,529
45897,530
45901,526
45905,521
45913,511
45917,499
45921,490
45926,490
45934,519
45938,582
45942,614
45951,651
45954,664
45958,644
45962,610
45970,582
45974,562
45978,542
45987,523
45992,514
45996,512
45999,508
46007,506
46011,510
46016,512
46023,508
46028,507
46032,513
46036,512
46044,508
46048,511
46053,516
46061,513
46065,510
46069,515
46073,516
46081,511
46085,510
46089,513
46098,513
46101,507
46106,507
46110,510
46118,509
46122,506
46126,508
46134,512
46138,511
46143,509
46147,511
46155,514
46159,512
46163,512
46171,513
46175,514
46179,510
46184,508
46191,510
46196,513
46200,510
46208,509
46212,515
46216,516
46220,513
46228,514
46233,521
46237,522
46245,520
46249,522
46253,525
46257,521
46266,518
46270,522
46274,525
46282,520
46286,519
46290,523
46294,523
46302,519
46306,519
46310,523
46319,520
46323,519
46327,519
46331,521
46340,519
46344,516
46347,519
46356,520
46360,520
46364,519
46368,521
46376,522
46381,522
46384,519
46392,520
46396,523
46400,520
46405,518
46413,522
46417,523
46421,519
46429,520
46433,524
46437,522
46441,516
46450,518
46454,522
46458,517
46466,516
46471,519
46474,519
46478,516
46487,515
46491,517
46495,516
46503,509
46507,510
46511,512
46515,510
46523,508
46528,507
46532,509
46540,508
46544,509
46548,511
46552,512
46560,510
46564,510
46569,511
46577,514
46581,510
46585,510
46589,513
46597,516
46601,514
46605,514
46613,518
46617,517
46621,512
46625,514
46634,518
46638,515
46642,512
46650,515
46654,517
46658,514
46662,511
46670,510
46674,498
46679,482
46687,474
46691,477
46695,501
46699,561
46707,598
46711,634
46715,645
46724,623
46728,593
46732,566
46736,544
46744,523
46748,508
46752,499
46761,494
46765,489
46769,491
46773,493
46781,490
46785,491
46789,493
46797,494
46801,491
46806,489
46810,495
46818,495
46822,491
46826,491
46834,496
46838,492
46842,489
46846,493
46855,496
46859,493
46863,490
46871,495
46875,494
46879,492
46883,491
46892,495
46896,494
46900,491
46908,493
46912,494
46916,495
46920,494
46928,497
46933,500
46937,499
46945,497
46949,498
46953,501
46957,499
46965,498
46969,501
46974,505
46982,503
46986,503
46990,509
46994,512
47002,506
47006,507
47010,512
47019,512
47023,508
47027,510
47031,516
47039,511
47043,508
47047,512
47055,513
47060,507
47063,507
47068,511
47076,513
47080,509
47084,510
47092,515
47096,513
47100,511
47105,511
47113,514
47117,511
47121,510
47129,512
47133,514
47137,514
47141,512
47150,514
47154,515
47158,513
47166,511
47170,514
47174,517
47178,512
47186,510
47191,515
47195,515
47203,512
47207,512
47211,516
47215,513
47223,507
47227,510
47232,513
47240,510
47244,508
47248,511
47252,512
47260,508
47264,506
47268,510
47276,507
47281,503
47285,501
47289,504
47297,501
47301,499
47305,505
47313,508
47318,507
47322,506
47326,508
47334,512
47338,511
47342,510
47350,510
47354,515
47359,514
47363,512
47371,516
47375,519
47379,519
47387,516
47391,519
47395,518
47399,513
47408,514
47412,517
47416,515
47424,510
47428,513
47432,506
47436,491
47444,474
47449,472
47453,478
47461,507
47465,568
47469,604
47473,633
47481,639
47485,615
47490,586
47497,557
47502,535
47506,521
47510,505
47518,495
47522,490
47526,488
47535,491
47538,490
47543,488
47547,490
47555,493
47559,490
47563,488
47571,492
47576,494
47580,491
47584,490
47592,494
47596,493
47600,488
47608,489
47613,493
47617,491
47621,488
47629,490
47633,492
47637,489
47645,486
47650,491
47654,491
47658,486
47666,486
47670,492
47674,491
47682,490
47686,496
47690,500
47695,500
47703,499
47707,500
47711,503
47719,502
47723,501
47727,504
47731,507
47740,508
47744,506
47748,507
47756,510
47760,508
47764,506
47768,508
47777,510
47781,507
47785,507
47793,511
47797,511
47801,506
47805,507
47813,511
47818,509
47822,504
47829,509
47834,513
47838,509
47842,509
47850,513
47854,514
47858,509
47866,511
47871,513
47875,512
47879,511
47887,512
47891,514
47895,515
47903,513
47907,513
47912,517
47916,515
47924,513
47928,513
47932,514
47940,511
47944,509
47949,511
47953,513
47961,512
47965,509
47969,512
47977,513
47981,508
47985,509
47990,513
47998,514
48002,507
48006,507
48014,508
48018,505
48022,500
48026,502
48034,505
48039,500
48043,496
48051,502
48055,505
48059,506
48063,507
48071,510
48076,510
48080,506
48088,512
48092,514
48096,513
48100,513
48109,514
48112,518
48116,515
48124,513
48129,514
48133,515
48137,515
48145,512
48149,513
48153,513
48161,510
48166,506
48170,510
48174,510
48182,503
48186,492
48190,481
48198,469
48202,461
48207,476
48211,535
48219,581
48223,610
48227,637
48235,628
48239,595
48243,562
48247,542
48256,523
48260,501
48264,488
48272,486
48276,479
48280,475
48284,476
48293,481
48297,479
48301,476
48309,480
48313,481
48317,481
48321,478
48329,479
48333,481
48338,477
48346,475
48350,478
48354,480
48359,477
48366,476
48370,481
48374,480
48382,477
48387,478
48391,481
48395,481
48403,479
48407,482
48411,488
48419,486
48424,486
48428,491
48432,495
48440,494
48444,494
48448,499
48456,499
48461,496
48464,497
48469,497
48477,496
48481,492
48485,496
48493,500
48497,500
48501,499
48506,502
48514,503
48518,502
48522,503
48530,504
48534,506
48538,503
48542,502
48551,503
48555,505
48559,502
48567,500
48571,504
48575,504
48579,501
48587,501
48592,504
48596,504
48603,499
48608,504
48612,506
48616,503
48624,501
48628,505
48632,507
48640,503
48645,503
48649,506
48653,505
48661,503
48665,503
48669,505
48677,505
48682,503
48686,504
48690,504
48698,502
48702,501
48706,503
48714,504
48719,504
48722,501
48727,500
48735,501
48739,498
48743,496
48751,498
48755,500
48759,493
48763,492
48772,494
48776,494
48780,491
48784,492
48792,497
48796,497
48800,496
48809,499
48813,504
48817,503
48821,499
48830,502
48833,504
48837,501
48846,502
48850,504
48853,506
48858,501
48866,503
48870,504
48874,502
48882,499
48886,500
48890,502
48895,501
48903,499
48907,499
48911,501
48919,492
48923,476
48927,462
48931,459
48940,458
48944,487
48948,560
48956,602
48961,626
48964,632
48968,611
48976,578
48980,544
48985,525
48993,514
48997,497
49001,480
49005,476
49013,476
49017,473
49021,470
49029,474
49033,476
49037,471
49041,471
49050,476
49054,475
49058,472
49066,473
49070,477
49074,477
49078,475
49087,477
49091,479
49095,476
49103,474
49107,475
49111,476
49115,474
49123,473
49127,474
49132,477
49140,475
49144,474
49148,477
49152,481
49160,478
49164,481
49169,487
49177,490
49181,485
49185,487
49189,492
49197,490
49201,485
49205,489
49213,493
49217,490
49222,488
49226,493
49234,496
49238,492
49242,496
49250,502
49254,502
49259,501
49263,501
49271,503
49275,502
49279,502
49287,503
49291,506
49295,505
49299,505
49308,504
49312,506
49316,503
49324,502
49328,501
49333,503
49337,500
49345,498
49349,502
49353,505
49361,501
49365,501
49369,504
49374,505
49382,501
49385,504
49390,507
49398,505
49402,502
49406,504
49410,509
49418,505
49422,504
49426,508
49435,507
49439,504
49443,504
49447,507
49455,506
49459,502
49463,503
49472,506
49476,502
49480,501
49484,500
49492,501
49496,499
49500,498
49508,500
49512,503
49517,501
49521,499
49529,501
49533,503
49537,499
49545,496
49549,498
49553,500
49558,497
49566,499
49570,502
49574,503
49582,499
49587,502
49591,508
49595,507
49603,504
49607,508
49611,510
49619,508
49623,509
49628,512
49631,504
49640,487
49644,475
49648,472
49656,473
49660,502
49664,573
49668,614
49677,651
49681,659
49685,635
49693,600
49697,567
49701,543
49705,524
49714,510
49718,495
49722,486
49731,488
49734,489
49738,487
49742,485
49751,491
49754,492
49759,490
49767,492
49771,496
49775,496
49779,495
49787,497
49791,498
49796,494
49804,493
49808,493
49812,495
49816,494
49824,494
49828,495
49832,494
49840,493
49845,495
49849,497
49853,496
49862,497
49865,498
49869,498
49878,500
49881,501
49886,500
49890,500
49898,502
49902,501
49906,498
49914,498
49918,497
49923,495
49926,494
49935,495
49939,495
49943,493
49951,495
49955,499
49959,498
49963,499
49972,502
49976,502
49980,501
49988,502
49992,505
49996,503
50000,504
50008,506
50013,507
50017,506
50025,506
50029,508
50033,507
50037,507
50045,511
50049,511
50053,510
50062,512
50066,513
50070,512
50074,511
50082,514
50086,512
50090,512
50098,514
50103,515
50107,513
50111,514
50119,515
50123,513
50127,514
50135,515
50139,515
50144,513
50148,514
50156,515
50160,511
50164,513
50172,514
50176,515
50180,514
50185,514
50193,513
50197,511
50201,510
50209,512
50213,511
50217,510
50221,510
50230,510
50234,512
50238,511
50246,512
50250,510
50254,509
50258,510
50266,505
50271,502
50275,499
50283,495
50287,490
50291,488
50295,485
50303,484
50307,483
50312,485
50320,484
50324,483
50328,484
50332,486
50340,485
50344,485
50348,485
50356,486
50361,474
50365,463
50369,455
50377,452
50381,465
50385,523
50393,573
50398,609
50402,635
50406,630
50414,600
50418,567
50422,542
50430,523
50434,505
50438,491
50442,485
50451,481
50455,481
50459,482
50467,483
50471,483
50475,485
50479,487
50488,487
50492,488
50496,490
50504,491
50508,489
50512,490
50516,494
50524,494
50529,493
50533,496
50541,497
50545,496
50549,498
50553,500
50561,500
50565,502
50570,504
50577,504
50581,504
50586,504
50590,507
50598,509
50602,509
50606,511
50614,511
50618,509
50622,511
50627,510
50635,507
50639,506
50643,504
50651,504
50655,502
50659,501
50664,503
50672,501
50676,503
50680,503
50688,501
50692,501
50696,501
50700,501
50709,498
50713,498
50717,499
50725,496
50729,495
50733,496
50737,496
50745,494
50749,496
50754,496
50761,495
50766,496
50770,497
50774,499
50782,499
50786,500
50790,502
50798,501
50803,504
50807,505
50811,505
50819,505
50823,505
50827,507
50835,505
50839,506
50844,509
50848,509
50856,510
50860,510
50864,512
50872,510
50876,511
50880,513
50885,511
50893,511
50897,513
50901,512
50909,510
50913,510
50917,510
50922,509
50930,507
50934,508
50938,508
50946,505
50950,507
50954,512
50958,511
50966,513
50971,514
50975,514
50982,513
50987,513
50991,513
50995,512
51003,512
51007,513
51012,512
51019,512
51024,511
51028,511
51032,509
51040,510
51044,509
51048,510
51056,506
51061,506
51065,507
51069,505
51077,506
51081,497
51085,483
51093,470
51098,466
51102,469
51106,500
51114,562
51118,593
51122,626
51130,633
51134,610
51138,575
51143,543
51151,521
51155,503
51159,485
51167,477
51171,474
51175,473
51179,471
51188,473
51192,474
51196,473
51204,476
51208,479
51212,480
51216,483
51224,487
51229,487
51233,488
51241,490
51245,492
51249,494
51253,495
51261,497
51265,497
51269,496
51277,499
51282,501
51286,501
51290,502
51298,504
51302,504
51306,503
51314,505
51319,506
51323,507
51327,508
51335,511
51339,509
51343,508
51351,510
51356,510
51360,508
51364,505
51372,506
51376,505
51380,505
51388,504
51392,505
51396,504
51401,506
51409,506
51413,507
51417,506
51425,508
51429,508
51433,508
51437,509
51446,509
51450,506
51454,507
51462,506
51466,507
51470,506
51474,509
51482,509
51487,509
51491,507
51498,508
51503,509
51507,509
51511,513
51519,514
51523,515
51528,513
51536,518
51540,518
51544,518
51548,521
51556,522
51561,522
51565,522
51572,523
51577,523
51581,521
51585,519
51593,519
51598,518
51602,519
51609,520
51614,520
51618,521
51622,522
51630,522
51634,523
51638,523
51646,523
51651,522
51655,521
51659,524
51667,523
51671,522
51675,522
51683,524
51688,523
51692,521
51696,522
51704,520
51708,517
51712,517
51716,516
51724,511
51728,508
51732,508
51741,506
51745,504
51749,504
51753,501
51761,497
51765,496
51769,495
51778,493
51782,493
51786,494
51790,493
51799,491
51802,488
51806,482
51814,467
51819,455
51823,447
51827,444
51835,465
51839,534
51843,581
51851,610
51856,624
51860,607
51864,574
51872,543
51876,522
51880,506
51888,491
51892,477
51896,472
51901,468
51909,465
51913,468
51917,468
51925,465
51929,468
51933,469
51937,469
51946,471
51950,470
51954,472
51962,471
51966,472
51970,472
51974,471
51982,471
51986,473
51991,475
51999,474
52003,475
52007,477
52011,479
52019,481
52023,483
52028,485
52036,489
52040,492
52044,494
52048,496
52056,499
52060,504
52064,505
52072,506
52077,507
52081,507
52085,506
52093,506
52097,506
52101,506
52109,503
52113,505
52117,506
52122,504
52130,504
52134,505
52138,505
52146,505
52151,506
52154,507
52159,506
52167,507
52171,508
52175,508
52183,507
52187,509
52191,509
52195,509
52204,510
52208,511
52212,511
52220,508
52224,508
52228,509
52232,507
52240,508
52244,509
52249,508
52257,508
52261,509
52265,508
52269,506
52277,508
52281,510
52285,506
52294,507
52298,508
52302,506
52306,505
52314,505
52318,505
52322,504
52331,503
52335,504
52339,503
52343,503
52351,504
52355,503
52359,501
52367,500
52371,502
52376,500
52380,498
52388,500
52392,502
52396,504
52404,505
52408,506
52412,506
52417,507
52425,509
52429,510
52433,507
52441,510
52445,511
52449,512
52453,515
52462,516
52465,515
52470,514
52478,515
52482,517
52486,514
52490,516
52498,518
52502,517
52507,517
52515,519
52519,519
52523,514
52527,500
52535,489
52539,474
52543,468
52552,482
52556,539
52560,595
52564,633
52572,664
52576,655
52580,621
52589,586
52593,557
52597,537
52601,516
52609,502
52613,492
52617,490
52625,490
52629,489
52634,489
52638,491
52646,491
52650,491
52654,491
52662,494
52666,493
52670,491
52675,492
52683,493
52687,492
52691,493
52699,493
52703,492
52707,492
52711,492
52720,492
52724,491
52728,489
52736,490
52740,489
52744,490
52748,491
52756,494
52761,492
52765,494
52773,496
52777,495
52781,497
52785,499
52793,499
52797,501
52801,500
52810,499
52814,498
52818,500
52822,500
52830,502
52834,503
52838,505
52846,507
52851,508
52855,509
52859,510
52867,511
52871,512
52875,513
52883,513
52887,513
52892,514
52896,516
52904,515
52908,515
52912,518
52920,518
52924,517
52928,518
52933,519
52941,519
52945,518
52949,519
52957,518
52961,514
52965,516
52969,517
52977,518
52982,518
52986,518
52994,519
52998,518
53002,519
53006,520
53015,519
53019,518
53023,519
53031,519
53035,517
53039,516
53043,515
53051,515
53055,514
53059,515
53068,513
53072,512
53076,512
53080,512
53088,510
53092,508
53096,508
53105,506
53109,504
53113,504
53117,504
53125,502
53129,504
53133,507
53141,504
53145,503
53150,506
53154,505
53162,503
53166,501
53170,501
53178,503
53182,502
53187,503
53191,504
53199,503
53203,504
53207,506
53215,505
53219,507
53223,509
53227,511
53236,510
53240,513
53244,513
53252,513
53256,512
53260,504
53264,490
53273,476
53277,472
53281,480
53289,526
53293,591
53297,628
53301,663
53309,662
53313,631
53317,594
53326,561
53330,541
53334,522
53338,503
53346,495
53350,490
53354,489
53363,487
53367,489
53371,491
53375,492
53383,491
53387,493
53391,495
53399,495
53403,494
53407,496
53411,495
53420,494
53424,494
53428,495
53436,495
53441,494
53445,492
53449,493
53457,495
53461,494
53465,493
53473,493
53477,494
53481,496
53485,495
53494,496
53498,496
53502,498
53510,498
53514,499
53518,502
53522,500
53531,499
53535,499
53539,499
53547,496
53551,496
53555,495
53559,493
53567,495
53571,497
53576,495
53584,496
53588,497
53592,499
53596,498
53604,499
53608,501
53612,502
53620,502
53625,504
53629,505
53633,505
53641,507
53645,509
53649,509
53657,511
53662,514
53666,515
53670,516
53678,516
53682,519
53686,518
53694,518
53699,519
53703,520
53707,520
53715,519
53719,519
53723,517
53731,515
53735,517
53739,515
53743,512
53752,512
53756,513
53760,511
53768,512
53772,512
53776,512
53780,511
53789,511
53792,513
53797,511
53805,512
53809,512
53813,511
53817,510
53825,510
53829,511
53834,510
53841,507
53846,506
53850,506
53854,505
53862,506
53866,504
53870,504
53878,507
53883,508
53887,508
53891,509
53899,509
53903,509
53907,506
53915,507
53920,507
53924,505
53928,506
53936,507
53940,507
53944,504
53952,505
53956,504
53961,504
53964,503
53973,504
53977,504
53981,502
53989,505
53994,505
53997,504
54001,502
54009,493
54013,479
54018,468
54025,464
54030,480
54034,539
54038,592
54046,631
54050,656
54054,648
54062,615
54066,579
54070,552
54075,534
54083,514
54087,498
54091,493
54099,492
54104,490
54107,489
54111,490
54120,491
54124,491
54128,489
54136,491
54140,491
54144,491
54148,491
54157,493
54161,492
54165,493
54173,495
54177,495
54181,494
54185,496
54194,496
54197,495
54202,496
54210,495
54214,496
54218,495
54222,497
54230,498
54234,499
54238,498
54247,500
54251,502
54255,503
54259,504
54267,504
54271,503
54275,502
54283,500
54288,498
54292,497
54296,497
54304,497
54308,496
54312,496
54320,499
54324,499
54329,497
54333,500
54341,500
54345,499
54349,499
54357,497
54361,499
54365,500
54370,501
54378,501
54382,502
54386,503
54394,504
54398,504
54402,505
54406,506
54415,508
54419,506
54423,509
54431,509
54435,508
54439,509
54443,512
54452,512
54456,512
54460,513
54468,512
54472,512
54476,513
54480,514
54488,513
54492,513
54496,514
54504,513
54509,513
54513,513
54517,514
54526,512
54530,510
54534,512
54541,510
54546,510
54550,512
54554,513
54562,512
54566,510
54570,514
54578,512
54583,510
54587,511
54591,511
54599,509
54603,508
54607,508
54615,507
54619,506
54624,507
54628,507
54636,506
54640,509
54644,511
54652,510
54656,510
54660,511
54665,510
54673,506
54677,507
54681,507
54689,507
54693,505
54697,506
54701,505
54710,504
54714,503
54718,504
54722,503
54730,504
54734,505
54738,505
54746,503
54750,504
54755,506
54759,503
54767,492
54771,480
54775,469
54783,463
54787,477
54792,535
54796,589
54804,627
54808,656
54812,646
54820,615
54824,580
54828,553
54833,533
54840,515
54845,501
54849,493
54857,489
54861,489
54865,489
54869,488
54878,490
54882,490
54886,488
54894,490
54898,490
54902,492
54906,491
54914,492
54918,493
54923,490
54931,490
54935,492
54939,492
54943,492
54951,493
54955,495
54959,493
54968,491
54971,493
54976,494
54980,493
54988,495
54992,496
54996,495
55004,495
55009,499
55013,500
55017,501
55025,502
55029,502
55033,502
55041,500
55045,500
55049,498
55053,497
55062,497
55066,496
55070,496
55078,496
55082,498
55086,499
55090,500
55099,501
55103,500
55107,499
55115,502
55119,502
55123,502
55127,502
55135,503
55139,503
55144,504
55152,505
55156,507
55160,508
55164,508
55172,510
55177,510
55181,510
55189,511
55193,512
55197,511
55201,513
55209,512
55213,513
55217,510
55226,511
55230,513
55234,514
55238,513
55246,513
55250,511
55254,510
55262,511
55267,512
55271,511
55275,512
55283,513
55287,511
55291,508
55299,510
55303,510
55307,509
55311,511
55320,513
55324,510
55328,509
55336,511
55340,511
55344,510
55348,511
55357,511
55361,509
55365,507
55373,506
55377,508
55381,506
55385,505
55394,505
55398,507
55402,509
55410,509
55414,509
55418,506
55422,508
55430,506
55435,504
55439,503
55447,504
55451,503
55455,502
55459,503
55467,503
55471,501
55475,501
55483,502
55488,502
55492,502
55496,501
55504,499
55508,501
55512,503
55520,506
55525,501
55529,488
55533,476
55541,467
55545,465
55549,484
55557,544
55561,594
55566,626
55570,649
55578,637
55582,608
55586,575
55594,551
55598,529
55602,510
55606,497
55615,489
55619,484
55623,482
55631,482
55635,481
55639,479
55643,483
55652,484
55655,484
55660,484
55668,484
55672,484
55676,485
55680,485
55688,485
55692,487
55696,488
55705,487
55709,486
55713,488
55717,490
55725,488
55729,488
55733,491
55742,490
55746,490
55750,492
55754,493
55762,494
55766,495
55770,496
55778,496
55782,496
55786,499
55791,499
55799,497
55803,496
55807,495
55815,493
55819,491
55824,490
55828,489
55836,489
55840,489
55844,490
55852,491
55856,490
55860,491
55864,493
55873,492
55877,494
55881,496
55889,497
55893,497
55897,498
55901,499
55909,498
55914,502
55918,503
55926,504
55930,503
55934,504
55938,504
55946,504
55950,505
55955,507
55963,507
55967,506
55971,508
55975,506
55983,506
55987,506
55991,508
55999,506
56004,505
56008,506
56012,506
56020,507
56024,507
56028,507
56036,507
56040,505
56045,506
56048,507
56057,505
56061,505
56065,506
56073,506
56077,506
56081,507
56086,506
56094,505
56098,506
56102,505
56110,503
56114,503
56118,505
56122,502
56131,502
56135,505
56139,506
56147,505
56151,506
56155,507
56159,504
56167,503
56172,503
56176,504
56184,503
56188,503
56192,506
56196,504
56204,505
56208,507
56212,506
56221,505
56225,506
56229,507
56233,505
56241,506
56245,508
56249,507
56258,506
56262,496
56266,483
56270,468
56278,465
56282,476
56286,525
56294,589
56298,624
56303,657
56307,652
56315,620
56319,585
56323,557
56331,536
56335,518
56340,502
56344,492
56352,489
56356,486
56360,487
56368,486
56372,486
56376,487
56381,487
56389,487
56393,490
56397,488
56405,488
56409,491
56413,490
56417,490
56425,492
56430,494
56434,493
56442,493
56446,492
56450,496
56454,495
56462,496
56467,497
56471,497
56479,496
56483,499
56487,499
56491,500
56499,503
56503,504
56508,505
56515,507
56520,507
56524,508
56528,508
56536,509
56540,507
56544,505
56552,506
56557,507
56561,508
56565,507
56573,509
56577,510
56581,508
56589,509
56594,512
56598,511
56602,512
56610,513
56614,515
56618,513
56626,514
56630,515
56634,514
56639,514
56647,515
56651,517
56655,517
56663,518
56667,521
56671,519
56675,518
56683,520
56688,519
56692,518
56700,519
56704,518
56708,518
56712,518
56720,518
56724,517
56728,518
56737,517
56741,519
56745,515
56749,517
56757,518
56761,516
56765,515
56773,517
56778,517
56782,516
56786,516
56794,519
56798,518
56802,515
56810,517
56815,519
56819,516
56823,516
56831,517
56835,515
56839,512
56847,513
56851,514
56855,511
56860,513
56868,512
56872,511
56876,513
56884,515
56888,517
56892,516
56896,516
56905,517
56909,516
56913,516
56921,514
56925,515
56929,515
56933,517
56942,518
56946,515
56950,517
56958,518
56962,519
56966,519
56970,520
56978,519
56982,520
56987,521
56994,522
56999,523
57003,510
57007,499
57015,485
57019,477
57023,485
57031,532
57036,596
57040,631
57044,668
57052,668
57056,638
57060,598
57068,570
57073,548
57077,526
57081,511
57089,502
57093,497
57097,495
57105,497
57109,495
57114,492
57118,497
57126,496
57130,496
57134,499
57142,499
57146,498
57150,499
57154,500
57163,499
57167,499
57171,498
57179,499
57183,498
57187,497
57191,499
57199,497
57203,496
57208,496
57215,496
57220,496
57224,495
57228,497
57236,498
57240,498
57245,500
57252,504
57257,503
57261,504
57265,505
57273,506
57277,504
57281,506
57289,507
57294,505
57298,506
57302,507
57310,507
57314,507
57318,509
57326,510
57331,510
57335,511
57339,513
57347,513
57351,514
57355,515
57363,515
57367,514
57371,515
57376,516
57384,516
57388,516
57392,518
57400,518
57405,517
57409,518
57413,519
57421,518
57425,518
57429,519
57437,519
57441,517
57446,515
57450,518
57458,516
57462,515
57466,515
57474,516
57478,515
57482,517
57487,518
57495,518
57499,517
57503,518
57511,518
57515,517
57519,517
57523,518
57532,517
57536,517
57540,519
57547,519
57552,518
57556,517
57560,516
57568,516
57573,515
57577,516
57584,515
57589,513
57593,516
57597,512
57605,511
57609,514
57614,517
57621,516
57626,517
57630,518
57634,518
57642,516
57646,517
57650,517
57655,518
57663,515
57667,519
57671,520
57679,520
57683,520
57687,521
57691,519
57699,518
57704,519
57708,520
57716,519
57720,518
57724,520
57728,519
57736,514
57740,502
57744,488
57753,477
57757,474
57761,492
57765,554
57773,601
57777,640
57781,663
57790,651
57794,618
57798,581
57802,553
57810,534
57814,515
57818,499
57826,492
57830,491
57835,492
57839,490
57847,490
57851,491
57855,490
57863,489
57868,491
57871,493
57876,491
57884,492
57888,492
57892,491
57900,491
57904,493
57908,494
57912,491
57921,490
57925,491
57929,490
57937,490
57941,490
57945,489
57949,490
57957,490
57962,490
57966,492
57974,494
57978,495
57982,497
57986,499
57994,502
57999,502
58003,502
58011,503
58015,504
58019,503
58023,502
58031,504
58035,504
58039,502
58047,505
58052,507
58056,505
58060,505
58068,507
58072,509
58076,505
58084,507
58089,509
58093,507
58097,507
58105,508
58109,508
58113,507
58121,508
58125,508
58130,509
58134,509
58142,509
58146,510
58150,508
58158,510
58162,511
58166,510
58170,509
58179,510
58183,512
58187,511
58195,512
58199,512
58203,510
58207,510
58215,511
58220,510
58224,509
58232,512
58236,509
58240,511
58244,510
58252,511
58256,510
58261,509
58269,512
58273,510
58277,509
58281,509
58289,511
58293,510
58297,508
58306,509
58310,509
58314,508
58318,508
58326,507
58330,508
58334,509
58342,512
58347,512
58351,511
58355,511
58363,512
58367,510
58371,510
58379,511
58384,509
58387,511
58392,510
58400,512
58404,511
58408,511
58416,512
58420,511
58424,511
58428,511
58437,512
58441,508
58445,510
58453,512
58457,508
58461,493
58465,481
58474,473
58478,467
58482,483
58490,546
58494,593
58498,631
58502,657
58511,646
58515,610
58519,574
58527,550
58531,530
58535,509
58539,496
58547,489
58551,488
58555,488
58564,488
58568,485
58572,486
58576,486
58584,487
58588,489
58592,490
58601,490
58605,491
58609,489
58613,491
58621,492
58625,491
58629,493
58637,492
58642,490
58646,491
58650,494
58658,493
58662,490
58666,493
58674,494
58678,493
58682,493
58687,496
58695,494
58699,495
58703,497
58711,499
58715,499
58719,499
58723,502
58731,503
58736,499
58740,501
58748,501
58752,501
58756,500
58760,500
58768,503
58772,503
58776,504
58785,502
58789,499
58793,499
58797,499
58805,501
58809,501
58813,501
58821,500
58825,499
58830,502
58834,503
58842,500
58846,500
58850,504
58858,503
58862,500
58866,501
58871,501
58879,501
58883,501
58887,504
58895,504
58899,499
58903,498
58907,502
58916,501
58920,501
58924,504
58932,504
58936,503
58940,502
58944,503
58952,501
58956,505
58960,507
58969,506
58973,505
58977,506
58981,508
58989,505
58993,505
58997,506
59005,504
59010,503
59014,503
59018,502
59026,502
59030,501
59034,503
59042,500
59046,501
59050,505
59055,509
59063,509
59067,508
59071,510
59079,508
59083,505
59087,506
59091,506
59100,504
59104,506
59108,507
59116,507
59120,503
59124,503
59128,506
59137,505
59141,504
59145,504
59153,503
59157,503
59161,503
59165,504
59173,502
59177,502
59182,492
59190,477
59194,462
59198,463
59202,469
59210,515
59214,576
59218,607
59227,631
59231,633
59235,607
59239,574
59247,548
59251,531
59255,515
59263,500
59268,488
59272,483
59276,481
59284,480
59288,482
59292,481
59300,482
59305,483
59308,484
59313,483
59321,483
59325,486
59329,487
59337,484
59341,486
59345,487
59350,487
59358,485
59362,486
59366,488
59374,488
59378,488
59382,488
59386,490
59395,490
59399,490
59403,491
59411,493
59415,495
59419,497
59423,498
59431,499
59436,501
59440,502
59448,502
59452,505
59456,504
59460,503
59468,500
59472,503
59476,500
59485,500
59489,503
59493,504
59497,501
59505,502
59509,506
59513,504
59522,504
59526,506
59530,508
59534,506
59542,506
59546,508
59550,505
59558,507
59562,508
59567,508
59571,509
59579,509
59583,512
59587,510
59595,509
59599,510
59603,508
59608,510
59616,510
59620,511
59624,508
59632,508
59636,511
59640,509
59644,508
59653,509
59657,509
59661,508
59669,510
59673,511
59678,511
59682,509
59690,510
59694,512
59698,509
59706,509
59710,512
59714,509
59719,508
59727,509
59731,508
59735,507
59743,507
59747,510
59751,507
59755,507
59764,507
59768,512
59772,513
59780,513
59784,513
59788,514
59792,512
59800,513
59804,511
59809,510
59817,510
59821,512
59825,512
59829,511
59837,509
59841,511
59846,511
59853,511
59858,513
59862,510
59866,509
59874,510
59878,511
59882,508
59890,506
59895,495
59899,479
59903,468
59911,464
59915,481
59919,543
59927,596
59932,636
59935,658
59940,646
59949,612
59952,578
59956,550
59964,531
59968,513
59972,497
59977,489
59985,488
59989,488
59993,487
60001,487
60005,488
60009,486
60013,488
60022,490
60026,489
60030,491
60038,493
60042,494
60046,494
60050,495
60058,497
60062,496
60067,497
60075,498
60079,497
60083,497
60087,498
60095,500
60099,499
60103,502
60111,506
60116,505
60120,505
60124,508
60132,511
60136,509
60140,510
60148,513
60153,514
60157,513
60161,513
60169,514
60173,513
60177,512
60185,515
60190,513
60194,512
60198,514
60206,516
60210,514
60214,514
60222,515
60226,514
60231,512
60235,510
60243,512
60247,510
60251,509
60259,508
60263,506
60267,503
60271,503
60280,504
60284,506
60288,508
60296,512
60300,510
60304,511
60308,516
60316,517
60320,518
60325,519
60332,520
60337,520
60341,523
60345,526
60353,528
60357,525
60361,529
60369,532
60374,529
60378,528
60382,530
60390,530
60394,523
60398,520
60406,516
60411,508
60415,500
60419,494
60427,489
60431,480
60436,472
60443,464
60448,456
60452,449
60456,446
60464,442
60468,438
60472,437
60480,435
60484,432
60488,429
60493,429
60501,429
60505,430
60509,428
60516,424
60521,424
60525,426
60530,430
60538,427
60542,425
60546,426
60553,426
60558,425
60562,425
60567,428
60574,429
60578,430
60583,432
60590,433
60595,432
60599,423
60603,414
60611,402
60616,397
60620,404
60627,449
60632,513
60636,550
60640,591
60648,597
60652,569
60656,536
60661,506
60669,486
60673,467
60677,452
60685,443
60689,440
60693,440
60697,440
60705,440
60710,444
60713,447
60722,446
60726,447
60730,450
60734,451
60742,448
60746,450
60751,452
60759,453
60763,454
60767,456
60771,458
60779,455
60783,456
60787,459
60796,459
60800,460
60804,462
60808,465
60816,465
60820,468
60824,471
60833,471
60837,474
60841,477
60845,478
60853,480
60857,482
60861,485
60869,485
60873,486
60877,487
60881,484
60890,485
60894,487
60898,487
60906,487
60910,489
60914,489
60918,488
60926,490
60930,490
60935,492
60943,491
60947,491
60951,494
60955,492
60963,492
60968,493
60972,493
60980,492
60984,492
60988,493
60992,491
61000,493
61004,494
61009,494
61017,493
61021,493
61025,494
61029,496
61037,495
61041,496
61045,496
61054,499
61058,498
61062,497
61066,497
61074,499
61078,501
61082,499
61090,501
61095,501
61099,500
61103,499
61111,500
61115,502
61119,502
61127,500
61131,501
61135,500
61140,498
61148,499
61152,500
61156,497
61164,498
61168,499
61172,499
61176,498
61185,503
61189,503
61193,502
61201,503
61205,505
61209,504
61213,504
61221,502
61226,502
61230,503
61238,503
61242,503
61246,503
61250,502
61258,503
61262,503
61267,502
61275,502
61279,502
61283,501
61287,503
61295,503
61299,506
61303,501
61312,491
61316,480
61320,463
61324,459
61332,471
61336,517
61340,573
61348,610
61353,643
61357,643
61361,613
61369,579
61373,548
61377,523
61385,502
61389,487
61393,477
61398,472
61406,473
61410,474
61414,473
61422,474
61426,475
61430,474
61435,476
61443,479
61447,479
61451,480
61459,482
61463,484
61467,484
61471,485
61480,487
61484,484
61488,486
61496,485
61500,485
61504,485
61508,486
61516,486
61520,486
61525,487
61533,489
61537,491
61541,490
61545,491
61553,495
61557,495
61561,496
61570,499
61574,502
61578,500
61582,500
61590,503
61594,502
61598,500
61606,503
61611,503
61615,503
61619,503
61627,507
61631,507
61635,506
61643,508
61647,508
61652,508
61656,510
61664,510
61668,511
61672,510
61680,512
61684,513
61688,512
61692,512
61701,514
61705,515
61709,514
61717,516
61721,516
61725,516
61730,516
61738,515
61742,512
61746,514
61754,515
61758,513
61762,513
61766,513
61774,512
61778,511
61783,514
61791,516
61795,515
61799,515
61803,518
61811,515
61815,514
61819,514
61828,515
61832,515
61836,514
61840,514
61848,514
61852,512
61856,510
61864,510
61869,508
61873,507
61877,508
61885,508
61889,506
61893,505
61901,508
61905,511
61909,509
61914,509
61922,508
61926,509
61930,509
61938,508
61942,507
61946,508
61950,508
61959,507
61963,507
61967,507
61975,506
61979,505
61984,506
61987,510
61995,506
62000,507
62004,508
62012,508
62016,506
62020,506
62024,505
62032,491
62037,477
62041,471
62049,469
62053,484
62057,543
62061,587
62069,624
62073,647
62077,636
62085,604
62090,570
62094,547
62098,528
62106,508
62110,496
62114,491
62122,486
62127,485
62131,486
62135,486
62143,484
62147,487
62151,487
62159,487
62163,487
62167,489
62172,488
62180,487
62184,489
62188,491
62196,490
62200,490
62204,492
62208,492
62217,490
62221,490
62225,492
62233,492
62237,492
62241,495
62245,495
62253,494
62257,495
62262,498
62270,498
62274,498
62278,501
62282,503
62290,503
62295,503
62299,503
62307,503
62311,500
62315,499
62319,499
62327,498
62331,499
62335,499
62343,497
62348,498
62352,498
62356,496
62364,498
62368,500
62372,499
62380,497
62384,499
62389,500
62393,499
62401,497
62405,499
62409,501
62417,499
62421,500
62425,503
62430,501
62438,500
62442,502
62446,503
62454,498
62458,495
62462,498
62466,504
62475,505
62479,503
62483,506
62491,509
62495,510
62499,513
62503,514
62511,514
62516,516
62520,518
62528,519
62532,516
62536,518
62540,516
62548,517
62552,517
62557,517
62565,516
62569,515
62573,516
62577,514
62585,513
62589,509
62593,504
62602,501
62606,503
62610,503
62614,501
62622,504
62626,506
62630,509
62638,507
62643,512
62647,512
62651,508
62659,508
62663,510
62667,510
62675,508
62679,513
62683,514
62687,511
62695,507
62699,508
62704,509
62712,508
62716,508
62720,509
62724,510
62732,508
62736,507
62741,509
62748,509
62753,508
62757,499
62761,486
62769,476
62773,470
62777,480
62785,527
62790,581
62794,612
62798,643
62806,642
62810,613
62814,579
62822,553
62827,538
62831,518
62835,503
62843,499
62847,502
62851,500
62859,500
62863,501
62867,499
62872,495
62880,495
62884,497
62888,493
62896,492
62900,493
62904,492
62908,492
62917,494
62921,497
62925,497
62933,496
62937,495
62941,493
62945,494
62954,494
62958,493
62962,493
62970,493
62974,493
62978,492
62982,495
62990,499
62995,501
62999,503
63006,505
63011,509
63015,506
63019,507
63027,510
63031,508
63035,506
63043,504
63048,506
63052,504
63056,503
63064,505
63068,505
63072,504
63080,504
63085,507
63089,507
63093,506
63101,505
63105,505
63109,504
63117,505
63122,506
63126,504
63129,504
63138,505
63142,504
63146,504
63154,505
63158,505
63162,503
63166,505
63175,507
63179,504
63183,505
63191,507
63195,506
63199,505
63203,504
63211,505
63215,503
63220,503
63227,505
63232,507
63236,504
63240,506
63248,506
63252,506
63256,504
63264,505
63269,505
63273,505
63277,505
63285,506
63289,506
63293,505
63301,505
63306,505
63310,506
63314,506
63322,504
63326,502
63330,501
63338,501
63342,502
63346,501
63351,501
63359,502
63363,502
63367,504
63375,506
63379,506
63383,506
63387,507
63396,506
63400,505
63404,505
63412,506
63416,504
63420,503
63424,505
63433,504
63437,504
63441,503
63449,502
63453,502
63457,500
63461,502
63469,501
63473,500
63478,501
63485,500
63490,498
63494,483
63498,471
63506,460
63510,457
63514,475
63522,536
63527,581
63531,612
63535,631
63543,619
63547,586
63551,558
63555,536
63564,518
63568,502
63572,489
63580,480
63584,476
63588,474
63592,476
63601,474
63605,475
63609,475
63617,475
63621,473
63626,476
63630,480
63638,477
63642,477
63646,479
63654,478
63658,480
63662,482
63666,482
63675,480
63679,480
63683,481
63691,478
63695,480
63699,482
63703,483
63712,483
63715,485
63720,489
63728,489
63732,490
63736,491
63740,495
63748,494
63752,496
63756,495
63765,494
63769,493
63773,494
63777,492
63785,491
63789,492
63793,489
63802,488
63806,489
63810,489
63814,489
63822,488
63826,492
63830,493
63838,490
63843,492
63847,493
63851,494
63859,493
63863,494
63867,495
63875,495
63879,499
63883,499
63888,500
63896,498
63900,500
63904,500
63912,500
63916,500
63920,500
63925,501
63933,501
63937,503
63941,502
63949,503
63954,504
63957,505
63961,504
63969,504
63973,503
63977,502
63986,501
63990,499
63994,501
63998,498
64006,494
64010,495
64015,496
64023,495
64027,497
64031,500
64035,496
64043,497
64047,498
64051,496
64059,490
64063,492
64067,495
64071,492
64080,490
64084,492
64088,492
64096,487
64100,492
64104,494
64108,494
64116,495
64121,497
64125,495
64133,492
64137,493
64141,494
64145,494
64153,492
64157,494
64161,496
64170,494
64174,495
64178,496
64182,497
64190,495
64194,496
64198,495
64207,498
64211,499
64215,500
64219,499
64227,499
64231,500
64235,498
64243,489
64247,478
64252,463
64256,456
64264,461
64268,500
64272,560
64280,597
64284,635
64289,642
64293,616
64301,581
64305,553
64309,530
64317,510
64321,496
64326,485
64329,479
64338,477
64342,478
64346,475
64354,475
64358,478
64362,480
64366,478
64374,480
64379,480
64383,480
64391,480
64395,482
64399,484
64403,483
64411,482
64415,480
64420,482
64428,484
64432,481
64436,483
64440,482
64448,484
64452,483
64456,483
64465,486
64469,489
64473,489
64477,489
64486,493
64490,495
64494,494
64502,497
64506,500
64510,497
64514,497
64522,499
64527,498
64531,495
64539,497
64543,498
64547,496
64551,496
64559,499
64563,500
64567,499
